 -7.64300000e-03
 -7.63500000e-03
 -7.63200000e-03
 -7.64500000e-03
 -7.65900000e-03
 -7.66600000e-03
 -7.64800000e-03
 -7.63900000e-03
 -7.64400000e-03
 -7.65800000e-03
 -7.65400000e-03
 -7.63600000e-03
 -7.62400000e-03
 -7.62300000e-03
 -7.63000000e-03
 -7.62700000e-03
 -7.62600000e-03
 -7.61300000e-03
 -7.60700000e-03
 -7.60300000e-03
 -7.58400000e-03
 -7.58300000e-03
 -7.59100000e-03
 -7.60200000e-03
 -7.59800000e-03
 -7.59200000e-03
 -7.59200000e-03
 -7.59200000e-03
 -7.59300000e-03
 -7.58700000e-03
 -7.59500000e-03
 -7.59700000e-03
 -7.59700000e-03
 -7.59800000e-03
 -7.59100000e-03
 -7.58600000e-03
 -7.59800000e-03
 -7.60700000e-03
 -7.60600000e-03
 -7.60100000e-03
 -7.60100000e-03
 -7.60300000e-03
 -7.60800000e-03
 -7.61600000e-03
 -7.61300000e-03
 -7.61000000e-03
 -7.60200000e-03
 -7.59600000e-03
 -7.60300000e-03
 -7.59300000e-03
 -7.59100000e-03
 -7.58300000e-03
 -7.58000000e-03
 -7.58700000e-03
 -7.58300000e-03
 -7.57400000e-03
 -7.57100000e-03
 -7.58500000e-03
 -7.59900000e-03
 -7.60300000e-03
 -7.59800000e-03
 -7.58800000e-03
 -7.59100000e-03
 -7.61100000e-03
 -7.62000000e-03
 -7.61800000e-03
 -7.61400000e-03
 -7.61600000e-03
 -7.62400000e-03
 -7.63100000e-03
 -7.63100000e-03
 -7.63600000e-03
 -7.63400000e-03
 -7.62800000e-03
 -7.62800000e-03
 -7.63900000e-03
 -7.63800000e-03
 -7.64000000e-03
 -7.64400000e-03
 -7.64800000e-03
 -7.64400000e-03
 -7.62900000e-03
 -7.62600000e-03
 -7.62400000e-03
 -7.63100000e-03
 -7.62900000e-03
 -7.61900000e-03
 -7.61900000e-03
 -7.60300000e-03
 -7.58400000e-03
 -7.56000000e-03
 -7.53900000e-03
 -7.54500000e-03
 -7.55700000e-03
 -7.55200000e-03
 -7.53400000e-03
 -7.50200000e-03
 -7.48000000e-03
 -7.45700000e-03
 -7.45200000e-03
 -7.45700000e-03
 -7.46000000e-03
 -7.46600000e-03
 -7.50500000e-03
 -7.52800000e-03
 -7.54100000e-03
 -7.57900000e-03
 -7.60000000e-03
 -7.63100000e-03
 -7.64500000e-03
 -7.64800000e-03
 -7.64800000e-03
 -7.64000000e-03
 -7.64300000e-03
 -7.64300000e-03
 -7.63100000e-03
 -7.62800000e-03
 -7.62600000e-03
 -7.62500000e-03
 -7.62400000e-03
 -7.61500000e-03
 -7.59400000e-03
 -7.56700000e-03
 -7.52600000e-03
 -7.41300000e-03
 -7.20800000e-03
 -6.85700000e-03
 -6.50700000e-03
 -6.35400000e-03
 -6.52100000e-03
 -6.96100000e-03
 -7.41200000e-03
 -7.69200000e-03
 -7.83900000e-03
 -7.81900000e-03
 -7.72000000e-03
 -7.65600000e-03
 -7.62100000e-03
 -7.60800000e-03
 -7.59400000e-03
 -7.58900000e-03
 -7.58800000e-03
 -7.58900000e-03
 -7.59100000e-03
 -7.58600000e-03
 -7.57300000e-03
 -7.56400000e-03
 -7.56500000e-03
 -7.57400000e-03
 -7.57800000e-03
 -7.57600000e-03
 -7.57000000e-03
 -7.57600000e-03
 -7.57500000e-03
 -7.57700000e-03
 -7.57000000e-03
 -7.55500000e-03
 -7.55600000e-03
 -7.54800000e-03
 -7.53900000e-03
 -7.50900000e-03
 -7.49300000e-03
 -7.48300000e-03
 -7.47800000e-03
 -7.48400000e-03
 -7.46900000e-03
 -7.47000000e-03
 -7.48700000e-03
 -7.50000000e-03
 -7.48400000e-03
 -7.47000000e-03
 -7.46000000e-03
 -7.43700000e-03
 -7.43200000e-03
 -7.42200000e-03
 -7.40500000e-03
 -7.37000000e-03
 -7.33500000e-03
 -7.31100000e-03
 -7.29000000e-03
 -7.25800000e-03
 -7.21200000e-03
 -7.18500000e-03
 -7.18300000e-03
 -7.17100000e-03
 -7.14900000e-03
 -7.12700000e-03
 -7.10100000e-03
 -7.08500000e-03
 -7.10000000e-03
 -7.09400000e-03
 -7.07100000e-03
 -7.08000000e-03
 -7.10500000e-03
 -7.14400000e-03
 -7.19400000e-03
 -7.25100000e-03
 -7.29800000e-03
 -7.35700000e-03
 -7.41100000e-03
 -7.44800000e-03
 -7.47100000e-03
 -7.50100000e-03
 -7.52500000e-03
 -7.53800000e-03
 -7.55100000e-03
 -7.55000000e-03
 -7.55300000e-03
 -7.57100000e-03
 -7.58000000e-03
 -7.58000000e-03
 -7.58000000e-03
 -7.59900000e-03
 -7.59400000e-03
 -7.58700000e-03
 -7.59000000e-03
 -7.59500000e-03
 -7.59700000e-03
 -7.60000000e-03
 -7.60100000e-03
 -7.59300000e-03
 -7.58500000e-03
 -7.57300000e-03
 -7.58400000e-03
 -7.58300000e-03
 -7.58000000e-03
 -7.56900000e-03
 -7.56100000e-03
 -7.54900000e-03
 -7.55100000e-03
 -7.55100000e-03
 -7.55400000e-03
 -7.55400000e-03
 -7.55100000e-03
 -7.55300000e-03
 -7.55500000e-03
 -7.54600000e-03
 -7.54800000e-03
 -7.56200000e-03
 -7.57200000e-03
 -7.55600000e-03
 -7.55100000e-03
 -7.55000000e-03
 -7.56000000e-03
 -7.55800000e-03
 -7.55200000e-03
 -7.54900000e-03
 -7.55500000e-03
 -7.56400000e-03
 -7.57200000e-03
 -7.55600000e-03
 -7.54800000e-03
 -7.56900000e-03
 -7.57000000e-03
 -7.55600000e-03
 -7.56100000e-03
 -7.57300000e-03
 -7.58100000e-03
 -7.57900000e-03
 -7.57600000e-03
 -7.57700000e-03
 -7.56300000e-03
 -7.56200000e-03
 -7.55700000e-03
 -7.55100000e-03
 -7.54300000e-03
 -7.52300000e-03
 -7.52300000e-03
 -7.54200000e-03
 -7.54200000e-03
 -7.53900000e-03
 -7.53900000e-03
 -7.53900000e-03
 -7.55300000e-03
 -7.56100000e-03
 -7.55000000e-03
 -7.55000000e-03
 -7.55500000e-03
 -7.55600000e-03
 -7.54800000e-03
 -7.54800000e-03
 -7.55600000e-03
 -7.56100000e-03
 -7.55900000e-03
 -7.56600000e-03
 -7.56300000e-03
 -7.55200000e-03
 -7.54900000e-03
 -7.55800000e-03
 -7.56400000e-03
 -7.56200000e-03
 -7.56100000e-03
 -7.56500000e-03
 -7.56200000e-03
 -7.56000000e-03
 -7.54800000e-03
 -7.54400000e-03
 -7.52600000e-03
 -7.49900000e-03
 -7.48900000e-03
 -7.49000000e-03
 -7.49300000e-03
 -7.50200000e-03
 -7.49800000e-03
 -7.47800000e-03
 -7.44500000e-03
 -7.43300000e-03
 -7.43500000e-03
 -7.43600000e-03
 -7.45000000e-03
 -7.46300000e-03
 -7.49200000e-03
 -7.52900000e-03
 -7.54600000e-03
 -7.57400000e-03
 -7.60300000e-03
 -7.62000000e-03
 -7.64800000e-03
 -7.66900000e-03
 -7.66800000e-03
 -7.66400000e-03
 -7.66300000e-03
 -7.65700000e-03
 -7.64900000e-03
 -7.63300000e-03
 -7.60300000e-03
 -7.60900000e-03
 -7.60300000e-03
 -7.60200000e-03
 -7.58800000e-03
 -7.56000000e-03
 -7.52800000e-03
 -7.42500000e-03
 -7.25400000e-03
 -6.96100000e-03
 -6.61000000e-03
 -6.36300000e-03
 -6.38800000e-03
 -6.74100000e-03
 -7.22400000e-03
 -7.56400000e-03
 -7.74100000e-03
 -7.78200000e-03
 -7.70700000e-03
 -7.62800000e-03
 -7.58500000e-03
 -7.57200000e-03
 -7.56500000e-03
 -7.54700000e-03
 -7.54000000e-03
 -7.53200000e-03
 -7.52500000e-03
 -7.52800000e-03
 -7.53500000e-03
 -7.53400000e-03
 -7.52400000e-03
 -7.52300000e-03
 -7.52200000e-03
 -7.53300000e-03
 -7.53700000e-03
 -7.51900000e-03
 -7.50400000e-03
 -7.50300000e-03
 -7.50200000e-03
 -7.49700000e-03
 -7.49400000e-03
 -7.47700000e-03
 -7.46200000e-03
 -7.45800000e-03
 -7.44700000e-03
 -7.43200000e-03
 -7.42900000e-03
 -7.43300000e-03
 -7.44500000e-03
 -7.44500000e-03
 -7.43100000e-03
 -7.43000000e-03
 -7.44300000e-03
 -7.45300000e-03
 -7.44200000e-03
 -7.42300000e-03
 -7.41500000e-03
 -7.39100000e-03
 -7.36400000e-03
 -7.35000000e-03
 -7.33100000e-03
 -7.29400000e-03
 -7.25100000e-03
 -7.22000000e-03
 -7.18100000e-03
 -7.14700000e-03
 -7.12000000e-03
 -7.09800000e-03
 -7.08300000e-03
 -7.06200000e-03
 -7.05200000e-03
 -7.03400000e-03
 -7.02800000e-03
 -7.01600000e-03
 -7.01800000e-03
 -7.02200000e-03
 -7.03900000e-03
 -7.08200000e-03
 -7.13000000e-03
 -7.18100000e-03
 -7.23400000e-03
 -7.27600000e-03
 -7.33000000e-03
 -7.38500000e-03
 -7.43400000e-03
 -7.44700000e-03
 -7.45900000e-03
 -7.48100000e-03
 -7.50300000e-03
 -7.52000000e-03
 -7.52500000e-03
 -7.52900000e-03
 -7.52000000e-03
 -7.52600000e-03
 -7.53000000e-03
 -7.52300000e-03
 -7.53000000e-03
 -7.53300000e-03
 -7.52500000e-03
 -7.50800000e-03
 -7.50000000e-03
 -7.49100000e-03
 -7.46900000e-03
 -7.46800000e-03
 -7.47600000e-03
 -7.48400000e-03
 -7.48500000e-03
 -7.48300000e-03
 -7.48300000e-03
 -7.48300000e-03
 -7.48200000e-03
 -7.47400000e-03
 -7.48400000e-03
 -7.48900000e-03
 -7.49100000e-03
 -7.48400000e-03
 -7.47800000e-03
 -7.47100000e-03
 -7.47000000e-03
 -7.48600000e-03
 -7.48600000e-03
 -7.49000000e-03
 -7.50000000e-03
 -7.50000000e-03
 -7.50000000e-03
 -7.50800000e-03
 -7.50800000e-03
 -7.50100000e-03
 -7.49400000e-03
 -7.50900000e-03
 -7.52100000e-03
 -7.52500000e-03
 -7.53000000e-03
 -7.54200000e-03
 -7.55500000e-03
 -7.55100000e-03
 -7.56500000e-03
 -7.57500000e-03
 -7.58000000e-03
 -7.58800000e-03
 -7.58700000e-03
 -7.57700000e-03
 -7.58900000e-03
 -7.59500000e-03
 -7.60400000e-03
 -7.60300000e-03
 -7.60400000e-03
 -7.61100000e-03
 -7.60900000e-03
 -7.61700000e-03
 -7.61400000e-03
 -7.60800000e-03
 -7.62200000e-03
 -7.63100000e-03
 -7.63500000e-03
 -7.63700000e-03
 -7.63700000e-03
 -7.62500000e-03
 -7.62700000e-03
 -7.64100000e-03
 -7.64200000e-03
 -7.63700000e-03
 -7.63500000e-03
 -7.63600000e-03
 -7.63700000e-03
 -7.63700000e-03
 -7.64300000e-03
 -7.65500000e-03
 -7.65500000e-03
 -7.63700000e-03
 -7.62800000e-03
 -7.61500000e-03
 -7.57600000e-03
 -7.55800000e-03
 -7.55500000e-03
 -7.55400000e-03
 -7.55100000e-03
 -7.55300000e-03
 -7.56700000e-03
 -7.55200000e-03
 -7.52100000e-03
 -7.50700000e-03
 -7.48200000e-03
 -7.47700000e-03
 -7.50000000e-03
 -7.49500000e-03
 -7.49800000e-03
 -7.52500000e-03
 -7.55300000e-03
 -7.59900000e-03
 -7.64700000e-03
 -7.65800000e-03
 -7.68500000e-03
 -7.71000000e-03
 -7.72200000e-03
 -7.72200000e-03
 -7.72300000e-03
 -7.71600000e-03
 -7.72100000e-03
 -7.72500000e-03
 -7.71700000e-03
 -7.72000000e-03
 -7.71900000e-03
 -7.72600000e-03
 -7.73300000e-03
 -7.72100000e-03
 -7.67900000e-03
 -7.58300000e-03
 -7.42300000e-03
 -7.14700000e-03
 -6.78100000e-03
 -6.54300000e-03
 -6.56000000e-03
 -6.91200000e-03
 -7.39700000e-03
 -7.71500000e-03
 -7.87000000e-03
 -7.94800000e-03
 -7.92800000e-03
 -7.85200000e-03
 -7.78800000e-03
 -7.76000000e-03
 -7.76100000e-03
 -7.75500000e-03
 -7.74100000e-03
 -7.73200000e-03
 -7.72300000e-03
 -7.71900000e-03
 -7.72600000e-03
 -7.73700000e-03
 -7.74200000e-03
 -7.72300000e-03
 -7.71900000e-03
 -7.72000000e-03
 -7.71000000e-03
 -7.69600000e-03
 -7.68100000e-03
 -7.68500000e-03
 -7.69900000e-03
 -7.69300000e-03
 -7.67900000e-03
 -7.66800000e-03
 -7.65300000e-03
 -7.64800000e-03
 -7.64700000e-03
 -7.63400000e-03
 -7.61500000e-03
 -7.59800000e-03
 -7.61300000e-03
 -7.61200000e-03
 -7.59400000e-03
 -7.58500000e-03
 -7.57900000e-03
 -7.57200000e-03
 -7.57100000e-03
 -7.55600000e-03
 -7.53900000e-03
 -7.52800000e-03
 -7.52600000e-03
 -7.51300000e-03
 -7.47300000e-03
 -7.45400000e-03
 -7.43500000e-03
 -7.41100000e-03
 -7.38200000e-03
 -7.35200000e-03
 -7.32100000e-03
 -7.29500000e-03
 -7.28200000e-03
 -7.27000000e-03
 -7.23800000e-03
 -7.20200000e-03
 -7.19200000e-03
 -7.17900000e-03
 -7.16900000e-03
 -7.16800000e-03
 -7.18500000e-03
 -7.22400000e-03
 -7.28300000e-03
 -7.34300000e-03
 -7.38000000e-03
 -7.41900000e-03
 -7.46000000e-03
 -7.50200000e-03
 -7.55300000e-03
 -7.58300000e-03
 -7.60500000e-03
 -7.62600000e-03
 -7.63400000e-03
 -7.63500000e-03
 -7.62900000e-03
 -7.63100000e-03
 -7.64400000e-03
 -7.64700000e-03
 -7.64800000e-03
 -7.64100000e-03
 -7.64000000e-03
 -7.64100000e-03
 -7.64800000e-03
 -7.65300000e-03
 -7.63400000e-03
 -7.62600000e-03
 -7.62600000e-03
 -7.64100000e-03
 -7.64400000e-03
 -7.63500000e-03
 -7.62000000e-03
 -7.62000000e-03
 -7.62100000e-03
 -7.61600000e-03
 -7.60500000e-03
 -7.59200000e-03
 -7.59000000e-03
 -7.59600000e-03
 -7.60600000e-03
 -7.60300000e-03
 -7.59400000e-03
 -7.59200000e-03
 -7.59600000e-03
 -7.60400000e-03
 -7.61400000e-03
 -7.60600000e-03
 -7.60500000e-03
 -7.61300000e-03
 -7.61500000e-03
 -7.61000000e-03
 -7.60200000e-03
 -7.60500000e-03
 -7.61700000e-03
 -7.59900000e-03
 -7.59500000e-03
 -7.60400000e-03
 -7.61700000e-03
 -7.62400000e-03
 -7.62300000e-03
 -7.62500000e-03
 -7.62900000e-03
 -7.62100000e-03
 -7.62300000e-03
 -7.61500000e-03
 -7.61300000e-03
 -7.62100000e-03
 -7.62600000e-03
 -7.63500000e-03
 -7.64000000e-03
 -7.63400000e-03
 -7.63100000e-03
 -7.63600000e-03
 -7.63700000e-03
 -7.62600000e-03
 -7.62200000e-03
 -7.61300000e-03
 -7.61000000e-03
 -7.62100000e-03
 -7.62700000e-03
 -7.61400000e-03
 -7.60500000e-03
 -7.61200000e-03
 -7.61800000e-03
 -7.62300000e-03
 -7.61800000e-03
 -7.58400000e-03
 -7.54500000e-03
 -7.53100000e-03
 -7.52700000e-03
 -7.51700000e-03
 -7.53100000e-03
 -7.52700000e-03
 -7.50300000e-03
 -7.47400000e-03
 -7.45900000e-03
 -7.44700000e-03
 -7.43600000e-03
 -7.44400000e-03
 -7.45900000e-03
 -7.47300000e-03
 -7.48900000e-03
 -7.51900000e-03
 -7.56900000e-03
 -7.61200000e-03
 -7.62200000e-03
 -7.63900000e-03
 -7.65500000e-03
 -7.66500000e-03
 -7.66700000e-03
 -7.65600000e-03
 -7.64500000e-03
 -7.64800000e-03
 -7.65500000e-03
 -7.65500000e-03
 -7.64900000e-03
 -7.64100000e-03
 -7.64300000e-03
 -7.64300000e-03
 -7.62500000e-03
 -7.57500000e-03
 -7.49800000e-03
 -7.35500000e-03
 -7.08100000e-03
 -6.72200000e-03
 -6.47000000e-03
 -6.47300000e-03
 -6.80700000e-03
 -7.30500000e-03
 -7.63700000e-03
 -7.78300000e-03
 -7.84200000e-03
 -7.80400000e-03
 -7.73200000e-03
 -7.67500000e-03
 -7.64500000e-03
 -7.64100000e-03
 -7.62800000e-03
 -7.62500000e-03
 -7.63500000e-03
 -7.63100000e-03
 -7.63400000e-03
 -7.63400000e-03
 -7.63800000e-03
 -7.64200000e-03
 -7.63500000e-03
 -7.62400000e-03
 -7.61500000e-03
 -7.62400000e-03
 -7.64100000e-03
 -7.62600000e-03
 -7.61300000e-03
 -7.61400000e-03
 -7.59800000e-03
 -7.58400000e-03
 -7.55100000e-03
 -7.53800000e-03
 -7.54000000e-03
 -7.55300000e-03
 -7.55300000e-03
 -7.54500000e-03
 -7.53500000e-03
 -7.52200000e-03
 -7.52000000e-03
 -7.52300000e-03
 -7.51500000e-03
 -7.49300000e-03
 -7.48700000e-03
 -7.48600000e-03
 -7.47800000e-03
 -7.45900000e-03
 -7.43500000e-03
 -7.42000000e-03
 -7.39300000e-03
 -7.37500000e-03
 -7.34900000e-03
 -7.30300000e-03
 -7.28000000e-03
 -7.25600000e-03
 -7.22300000e-03
 -7.21000000e-03
 -7.18100000e-03
 -7.15300000e-03
 -7.13300000e-03
 -7.11100000e-03
 -7.08700000e-03
 -7.06900000e-03
 -7.06200000e-03
 -7.05700000e-03
 -7.06900000e-03
 -7.08900000e-03
 -7.12800000e-03
 -7.18500000e-03
 -7.25200000e-03
 -7.31600000e-03
 -7.35700000e-03
 -7.39500000e-03
 -7.45000000e-03
 -7.48500000e-03
 -7.51900000e-03
 -7.53900000e-03
 -7.54100000e-03
 -7.55800000e-03
 -7.57100000e-03
 -7.57400000e-03
 -7.57100000e-03
 -7.56900000e-03
 -7.57800000e-03
 -7.58900000e-03
 -7.59800000e-03
 -7.59400000e-03
 -7.57700000e-03
 -7.58700000e-03
 -7.59200000e-03
 -7.57900000e-03
 -7.56900000e-03
 -7.57800000e-03
 -7.57000000e-03
 -7.57500000e-03
 -7.58000000e-03
 -7.57400000e-03
 -7.57900000e-03
 -7.59700000e-03
 -7.60400000e-03
 -7.59800000e-03
 -7.58600000e-03
 -7.58500000e-03
 -7.58600000e-03
 -7.59500000e-03
 -7.60000000e-03
 -7.59400000e-03
 -7.58700000e-03
 -7.60000000e-03
 -7.61000000e-03
 -7.60700000e-03
 -7.60700000e-03
 -7.61100000e-03
 -7.61300000e-03
 -7.62000000e-03
 -7.61100000e-03
 -7.60800000e-03
 -7.61300000e-03
 -7.62000000e-03
 -7.62700000e-03
 -7.62200000e-03
 -7.62800000e-03
 -7.62400000e-03
 -7.62200000e-03
 -7.64400000e-03
 -7.65300000e-03
 -7.65700000e-03
 -7.65900000e-03
 -7.65800000e-03
 -7.66900000e-03
 -7.67800000e-03
 -7.66400000e-03
 -7.65400000e-03
 -7.64900000e-03
 -7.65200000e-03
 -7.65500000e-03
 -7.64700000e-03
 -7.63700000e-03
 -7.63000000e-03
 -7.63000000e-03
 -7.62100000e-03
 -7.61600000e-03
 -7.61800000e-03
 -7.62400000e-03
 -7.63100000e-03
 -7.64600000e-03
 -7.63800000e-03
 -7.62800000e-03
 -7.63100000e-03
 -7.64000000e-03
 -7.63000000e-03
 -7.62200000e-03
 -7.63100000e-03
 -7.64000000e-03
 -7.63900000e-03
 -7.62600000e-03
 -7.59100000e-03
 -7.54700000e-03
 -7.51900000e-03
 -7.52400000e-03
 -7.53000000e-03
 -7.51900000e-03
 -7.50900000e-03
 -7.47600000e-03
 -7.45300000e-03
 -7.45600000e-03
 -7.43200000e-03
 -7.40200000e-03
 -7.39700000e-03
 -7.42500000e-03
 -7.46600000e-03
 -7.49300000e-03
 -7.50300000e-03
 -7.54800000e-03
 -7.59800000e-03
 -7.60900000e-03
 -7.61500000e-03
 -7.61500000e-03
 -7.61900000e-03
 -7.63200000e-03
 -7.63700000e-03
 -7.61500000e-03
 -7.59900000e-03
 -7.60000000e-03
 -7.60500000e-03
 -7.60200000e-03
 -7.60000000e-03
 -7.59300000e-03
 -7.58900000e-03
 -7.58700000e-03
 -7.55700000e-03
 -7.48100000e-03
 -7.34200000e-03
 -7.11700000e-03
 -6.77100000e-03
 -6.47700000e-03
 -6.38600000e-03
 -6.60900000e-03
 -7.07500000e-03
 -7.49000000e-03
 -7.71000000e-03
 -7.80100000e-03
 -7.76000000e-03
 -7.67300000e-03
 -7.62300000e-03
 -7.60200000e-03
 -7.58700000e-03
 -7.57600000e-03
 -7.57700000e-03
 -7.57700000e-03
 -7.56900000e-03
 -7.57000000e-03
 -7.56700000e-03
 -7.56300000e-03
 -7.55800000e-03
 -7.54900000e-03
 -7.54200000e-03
 -7.53400000e-03
 -7.52600000e-03
 -7.52900000e-03
 -7.53200000e-03
 -7.53600000e-03
 -7.52900000e-03
 -7.51900000e-03
 -7.53000000e-03
 -7.53300000e-03
 -7.49900000e-03
 -7.47800000e-03
 -7.45900000e-03
 -7.45600000e-03
 -7.44400000e-03
 -7.41500000e-03
 -7.39600000e-03
 -7.39000000e-03
 -7.39400000e-03
 -7.39000000e-03
 -7.37900000e-03
 -7.38000000e-03
 -7.37800000e-03
 -7.38300000e-03
 -7.38900000e-03
 -7.36400000e-03
 -7.33500000e-03
 -7.32800000e-03
 -7.31000000e-03
 -7.28200000e-03
 -7.24300000e-03
 -7.18800000e-03
 -7.14600000e-03
 -7.11600000e-03
 -7.09700000e-03
 -7.07300000e-03
 -7.04300000e-03
 -7.03300000e-03
 -7.02600000e-03
 -7.00900000e-03
 -6.99200000e-03
 -6.98800000e-03
 -6.99300000e-03
 -7.00500000e-03
 -7.01300000e-03
 -7.03000000e-03
 -7.07400000e-03
 -7.14400000e-03
 -7.20400000e-03
 -7.26200000e-03
 -7.31400000e-03
 -7.34700000e-03
 -7.38200000e-03
 -7.42700000e-03
 -7.46000000e-03
 -7.47300000e-03
 -7.47500000e-03
 -7.49700000e-03
 -7.51600000e-03
 -7.51500000e-03
 -7.50000000e-03
 -7.49300000e-03
 -7.49700000e-03
 -7.50900000e-03
 -7.50800000e-03
 -7.49100000e-03
 -7.49000000e-03
 -7.49300000e-03
 -7.48500000e-03
 -7.49300000e-03
 -7.48300000e-03
 -7.47500000e-03
 -7.47400000e-03
 -7.48100000e-03
 -7.47800000e-03
 -7.47900000e-03
 -7.47500000e-03
 -7.48300000e-03
 -7.48500000e-03
 -7.47800000e-03
 -7.46800000e-03
 -7.45700000e-03
 -7.44800000e-03
 -7.44900000e-03
 -7.45600000e-03
 -7.44600000e-03
 -7.43600000e-03
 -7.44700000e-03
 -7.46600000e-03
 -7.46800000e-03
 -7.47000000e-03
 -7.46500000e-03
 -7.45100000e-03
 -7.45200000e-03
 -7.44600000e-03
 -7.44100000e-03
 -7.45000000e-03
 -7.45700000e-03
 -7.46300000e-03
 -7.45800000e-03
 -7.45000000e-03
 -7.43200000e-03
 -7.43600000e-03
 -7.44800000e-03
 -7.44800000e-03
 -7.44100000e-03
 -7.44000000e-03
 -7.45100000e-03
 -7.45800000e-03
 -7.44800000e-03
 -7.43200000e-03
 -7.42300000e-03
 -7.41700000e-03
 -7.39900000e-03
 -7.38800000e-03
 -7.37000000e-03
 -7.37000000e-03
 -7.38200000e-03
 -7.38600000e-03
 -7.37700000e-03
 -7.36200000e-03
 -7.36700000e-03
 -7.38000000e-03
 -7.39700000e-03
 -7.39500000e-03
 -7.39600000e-03
 -7.41000000e-03
 -7.40400000e-03
 -7.41900000e-03
 -7.42600000e-03
 -7.42000000e-03
 -7.41700000e-03
 -7.40800000e-03
 -7.40800000e-03
 -7.40700000e-03
 -7.40500000e-03
 -7.39000000e-03
 -7.38000000e-03
 -7.38800000e-03
 -7.37700000e-03
 -7.37900000e-03
 -7.35700000e-03
 -7.33600000e-03
 -7.33500000e-03
 -7.34000000e-03
 -7.34800000e-03
 -7.35300000e-03
 -7.33800000e-03
 -7.30000000e-03
 -7.28600000e-03
 -7.27300000e-03
 -7.24500000e-03
 -7.23800000e-03
 -7.24000000e-03
 -7.25600000e-03
 -7.28900000e-03
 -7.30100000e-03
 -7.32800000e-03
 -7.38300000e-03
 -7.40800000e-03
 -7.41100000e-03
 -7.43400000e-03
 -7.45400000e-03
 -7.46600000e-03
 -7.47600000e-03
 -7.48100000e-03
 -7.48200000e-03
 -7.49000000e-03
 -7.49000000e-03
 -7.47200000e-03
 -7.46100000e-03
 -7.46100000e-03
 -7.46500000e-03
 -7.46500000e-03
 -7.44200000e-03
 -7.40100000e-03
 -7.31100000e-03
 -7.13300000e-03
 -6.83100000e-03
 -6.47500000e-03
 -6.22500000e-03
 -6.26300000e-03
 -6.65400000e-03
 -7.14500000e-03
 -7.49200000e-03
 -7.68600000e-03
 -7.71400000e-03
 -7.62300000e-03
 -7.53800000e-03
 -7.50800000e-03
 -7.50300000e-03
 -7.48300000e-03
 -7.48800000e-03
 -7.48700000e-03
 -7.51200000e-03
 -7.51100000e-03
 -7.48600000e-03
 -7.50000000e-03
 -7.51400000e-03
 -7.50900000e-03
 -7.51300000e-03
 -7.52500000e-03
 -7.52300000e-03
 -7.51400000e-03
 -7.51300000e-03
 -7.50600000e-03
 -7.50800000e-03
 -7.49900000e-03
 -7.47500000e-03
 -7.47500000e-03
 -7.48500000e-03
 -7.47600000e-03
 -7.48000000e-03
 -7.47600000e-03
 -7.46900000e-03
 -7.46200000e-03
 -7.44000000e-03
 -7.42100000e-03
 -7.42100000e-03
 -7.41800000e-03
 -7.40400000e-03
 -7.38100000e-03
 -7.36800000e-03
 -7.36800000e-03
 -7.34800000e-03
 -7.33200000e-03
 -7.30500000e-03
 -7.27600000e-03
 -7.26100000e-03
 -7.24800000e-03
 -7.21100000e-03
 -7.17700000e-03
 -7.15400000e-03
 -7.12700000e-03
 -7.09800000e-03
 -7.06200000e-03
 -7.03400000e-03
 -7.01400000e-03
 -7.00300000e-03
 -6.99000000e-03
 -6.96700000e-03
 -6.95500000e-03
 -6.94400000e-03
 -6.95400000e-03
 -6.96400000e-03
 -6.99300000e-03
 -7.03900000e-03
 -7.11300000e-03
 -7.17400000e-03
 -7.22300000e-03
 -7.27100000e-03
 -7.30300000e-03
 -7.33300000e-03
 -7.36600000e-03
 -7.40300000e-03
 -7.40900000e-03
 -7.41400000e-03
 -7.40600000e-03
 -7.43100000e-03
 -7.43300000e-03
 -7.42700000e-03
 -7.41600000e-03
 -7.42000000e-03
 -7.42500000e-03
 -7.43600000e-03
 -7.43600000e-03
 -7.43700000e-03
 -7.44600000e-03
 -7.44400000e-03
 -7.44200000e-03
 -7.43100000e-03
 -7.42100000e-03
 -7.41400000e-03
 -7.39900000e-03
 -7.38900000e-03
 -7.38800000e-03
 -7.38500000e-03
 -7.39400000e-03
 -7.38500000e-03
 -7.38400000e-03
 -7.37500000e-03
 -7.36800000e-03
 -7.35100000e-03
 -7.36100000e-03
 -7.38500000e-03
 -7.39100000e-03
 -7.38700000e-03
 -7.40000000e-03
 -7.41600000e-03
 -7.43500000e-03
 -7.45500000e-03
 -7.48000000e-03
 -7.45700000e-03
 -7.45400000e-03
 -7.44000000e-03
 -7.45900000e-03
 -7.47600000e-03
 -7.49600000e-03
 -7.52500000e-03
 -7.52400000e-03
 -7.51500000e-03
 -7.51900000e-03
 -7.52900000e-03
 -7.53000000e-03
 -7.54000000e-03
 -7.52600000e-03
 -7.52000000e-03
 -7.52500000e-03
 -7.50900000e-03
 -7.47200000e-03
 -7.46100000e-03
 -7.44700000e-03
 -7.45200000e-03
 -7.45700000e-03
 -7.43000000e-03
 -7.41300000e-03
 -7.40800000e-03
 -7.40800000e-03
 -7.42200000e-03
 -7.43400000e-03
 -7.40400000e-03
 -7.39200000e-03
 -7.39800000e-03
 -7.40800000e-03
 -7.41700000e-03
 -7.42500000e-03
 -7.42200000e-03
 -7.39700000e-03
 -7.39200000e-03
 -7.41400000e-03
 -7.40700000e-03
 -7.40100000e-03
 -7.42600000e-03
 -7.46600000e-03
 -7.48000000e-03
 -7.49500000e-03
 -7.49800000e-03
 -7.48300000e-03
 -7.48800000e-03
 -7.47000000e-03
 -7.42700000e-03
 -7.39200000e-03
 -7.38000000e-03
 -7.38700000e-03
 -7.38200000e-03
 -7.37500000e-03
 -7.35900000e-03
 -7.32600000e-03
 -7.32200000e-03
 -7.31200000e-03
 -7.28500000e-03
 -7.28900000e-03
 -7.29600000e-03
 -7.31300000e-03
 -7.35400000e-03
 -7.37700000e-03
 -7.39700000e-03
 -7.45000000e-03
 -7.47400000e-03
 -7.48700000e-03
 -7.49800000e-03
 -7.50800000e-03
 -7.51100000e-03
 -7.50400000e-03
 -7.49700000e-03
 -7.49800000e-03
 -7.50900000e-03
 -7.52000000e-03
 -7.52800000e-03
 -7.52000000e-03
 -7.49700000e-03
 -7.48000000e-03
 -7.46000000e-03
 -7.45100000e-03
 -7.41600000e-03
 -7.32200000e-03
 -7.16700000e-03
 -6.88900000e-03
 -6.53600000e-03
 -6.32500000e-03
 -6.38400000e-03
 -6.72500000e-03
 -7.18400000e-03
 -7.49700000e-03
 -7.66700000e-03
 -7.69800000e-03
 -7.59900000e-03
 -7.52100000e-03
 -7.49500000e-03
 -7.50100000e-03
 -7.50100000e-03
 -7.49800000e-03
 -7.49200000e-03
 -7.49600000e-03
 -7.49600000e-03
 -7.49200000e-03
 -7.47500000e-03
 -7.46100000e-03
 -7.47300000e-03
 -7.46900000e-03
 -7.45900000e-03
 -7.45800000e-03
 -7.46300000e-03
 -7.46100000e-03
 -7.44100000e-03
 -7.43700000e-03
 -7.44900000e-03
 -7.44600000e-03
 -7.45000000e-03
 -7.43600000e-03
 -7.42000000e-03
 -7.42100000e-03
 -7.43700000e-03
 -7.43900000e-03
 -7.43700000e-03
 -7.42700000e-03
 -7.41600000e-03
 -7.41100000e-03
 -7.40500000e-03
 -7.40400000e-03
 -7.39000000e-03
 -7.37600000e-03
 -7.37600000e-03
 -7.36300000e-03
 -7.34700000e-03
 -7.33400000e-03
 -7.31800000e-03
 -7.30000000e-03
 -7.28400000e-03
 -7.25700000e-03
 -7.21600000e-03
 -7.18000000e-03
 -7.16600000e-03
 -7.16300000e-03
 -7.13600000e-03
 -7.08500000e-03
 -7.05800000e-03
 -7.03600000e-03
 -7.02500000e-03
 -7.00500000e-03
 -6.99300000e-03
 -6.99200000e-03
 -6.99900000e-03
 -7.01500000e-03
 -7.05200000e-03
 -7.10100000e-03
 -7.16300000e-03
 -7.23700000e-03
 -7.30000000e-03
 -7.35800000e-03
 -7.40100000e-03
 -7.44500000e-03
 -7.50800000e-03
 -7.54000000e-03
 -7.54800000e-03
 -7.54800000e-03
 -7.57000000e-03
 -7.58500000e-03
 -7.60900000e-03
 -7.63700000e-03
 -7.63600000e-03
 -7.63100000e-03
 -7.62900000e-03
 -7.62900000e-03
 -7.62800000e-03
 -7.61200000e-03
 -7.60500000e-03
 -7.62200000e-03
 -7.64600000e-03
 -7.62900000e-03
 -7.61500000e-03
 -7.60200000e-03
 -7.58500000e-03
 -7.57000000e-03
 -7.56800000e-03
 -7.55900000e-03
 -7.56400000e-03
 -7.56800000e-03
 -7.55800000e-03
 -7.55200000e-03
 -7.56000000e-03
 -7.56300000e-03
 -7.56200000e-03
 -7.57200000e-03
 -7.57200000e-03
 -7.56800000e-03
 -7.57800000e-03
 -7.59100000e-03
 -7.59100000e-03
 -7.57100000e-03
 -7.57100000e-03
 -7.56800000e-03
 -7.58400000e-03
 -7.61100000e-03
 -7.61000000e-03
 -7.59100000e-03
 -7.59300000e-03
 -7.59500000e-03
 -7.61200000e-03
 -7.60600000e-03
 -7.60300000e-03
 -7.59400000e-03
 -7.58900000e-03
 -7.60200000e-03
 -7.59300000e-03
 -7.58700000e-03
 -7.57700000e-03
 -7.57000000e-03
 -7.56800000e-03
 -7.55800000e-03
 -7.54700000e-03
 -7.54600000e-03
 -7.56200000e-03
 -7.57000000e-03
 -7.56600000e-03
 -7.56100000e-03
 -7.56300000e-03
 -7.57800000e-03
 -7.57400000e-03
 -7.56700000e-03
 -7.58200000e-03
 -7.59500000e-03
 -7.59500000e-03
 -7.60200000e-03
 -7.61900000e-03
 -7.62800000e-03
 -7.61100000e-03
 -7.60600000e-03
 -7.62400000e-03
 -7.65100000e-03
 -7.65000000e-03
 -7.65000000e-03
 -7.65900000e-03
 -7.65600000e-03
 -7.65700000e-03
 -7.64700000e-03
 -7.62200000e-03
 -7.59000000e-03
 -7.57200000e-03
 -7.57500000e-03
 -7.58600000e-03
 -7.59300000e-03
 -7.58000000e-03
 -7.54500000e-03
 -7.52100000e-03
 -7.49900000e-03
 -7.47300000e-03
 -7.46200000e-03
 -7.47100000e-03
 -7.50000000e-03
 -7.53100000e-03
 -7.56000000e-03
 -7.59100000e-03
 -7.62500000e-03
 -7.65000000e-03
 -7.67000000e-03
 -7.69300000e-03
 -7.70500000e-03
 -7.70900000e-03
 -7.71500000e-03
 -7.72600000e-03
 -7.72900000e-03
 -7.72400000e-03
 -7.72400000e-03
 -7.72400000e-03
 -7.71600000e-03
 -7.72100000e-03
 -7.73200000e-03
 -7.72000000e-03
 -7.69800000e-03
 -7.66200000e-03
 -7.57200000e-03
 -7.43400000e-03
 -7.16700000e-03
 -6.83600000e-03
 -6.62300000e-03
 -6.67100000e-03
 -7.02200000e-03
 -7.45700000e-03
 -7.73900000e-03
 -7.90000000e-03
 -7.96000000e-03
 -7.89700000e-03
 -7.82000000e-03
 -7.76500000e-03
 -7.74800000e-03
 -7.73500000e-03
 -7.73900000e-03
 -7.73400000e-03
 -7.71900000e-03
 -7.70300000e-03
 -7.70200000e-03
 -7.70600000e-03
 -7.69900000e-03
 -7.68600000e-03
 -7.66800000e-03
 -7.66700000e-03
 -7.67100000e-03
 -7.66800000e-03
 -7.67200000e-03
 -7.66400000e-03
 -7.65500000e-03
 -7.65700000e-03
 -7.65400000e-03
 -7.64400000e-03
 -7.62000000e-03
 -7.59800000e-03
 -7.59000000e-03
 -7.59100000e-03
 -7.58500000e-03
 -7.56600000e-03
 -7.55700000e-03
 -7.55500000e-03
 -7.54300000e-03
 -7.53500000e-03
 -7.52200000e-03
 -7.51200000e-03
 -7.50600000e-03
 -7.50400000e-03
 -7.49600000e-03
 -7.49300000e-03
 -7.47400000e-03
 -7.45600000e-03
 -7.44800000e-03
 -7.42300000e-03
 -7.40000000e-03
 -7.36000000e-03
 -7.32300000e-03
 -7.29200000e-03
 -7.25700000e-03
 -7.22000000e-03
 -7.18900000e-03
 -7.17000000e-03
 -7.15300000e-03
 -7.13100000e-03
 -7.11600000e-03
 -7.10100000e-03
 -7.09900000e-03
 -7.10600000e-03
 -7.11900000e-03
 -7.13800000e-03
 -7.17800000e-03
 -7.23700000e-03
 -7.29500000e-03
 -7.35100000e-03
 -7.40200000e-03
 -7.44700000e-03
 -7.48900000e-03
 -7.52900000e-03
 -7.57000000e-03
 -7.58700000e-03
 -7.59500000e-03
 -7.59700000e-03
 -7.60600000e-03
 -7.62200000e-03
 -7.62000000e-03
 -7.61400000e-03
 -7.62700000e-03
 -7.62900000e-03
 -7.62400000e-03
 -7.61200000e-03
 -7.60200000e-03
 -7.60300000e-03
 -7.60600000e-03
 -7.62000000e-03
 -7.61500000e-03
 -7.61000000e-03
 -7.61300000e-03
 -7.61100000e-03
 -7.62600000e-03
 -7.63000000e-03
 -7.63000000e-03
 -7.62400000e-03
 -7.62200000e-03
 -7.63100000e-03
 -7.62800000e-03
 -7.61400000e-03
 -7.61900000e-03
 -7.63600000e-03
 -7.64000000e-03
 -7.62700000e-03
 -7.62300000e-03
 -7.63100000e-03
 -7.64300000e-03
 -7.64400000e-03
 -7.64700000e-03
 -7.64600000e-03
 -7.64700000e-03
 -7.66700000e-03
 -7.66400000e-03
 -7.65500000e-03
 -7.63600000e-03
 -7.63200000e-03
 -7.64300000e-03
 -7.65000000e-03
 -7.64400000e-03
 -7.63000000e-03
 -7.62700000e-03
 -7.62200000e-03
 -7.62200000e-03
 -7.62100000e-03
 -7.62100000e-03
 -7.62700000e-03
 -7.63500000e-03
 -7.63400000e-03
 -7.62700000e-03
 -7.61700000e-03
 -7.61700000e-03
 -7.62500000e-03
 -7.63000000e-03
 -7.62700000e-03
 -7.62400000e-03
 -7.62200000e-03
 -7.64800000e-03
 -7.65500000e-03
 -7.64200000e-03
 -7.62900000e-03
 -7.63100000e-03
 -7.65700000e-03
 -7.66400000e-03
 -7.65500000e-03
 -7.64200000e-03
 -7.63300000e-03
 -7.63100000e-03
 -7.64200000e-03
 -7.64200000e-03
 -7.64200000e-03
 -7.64400000e-03
 -7.64700000e-03
 -7.64400000e-03
 -7.64200000e-03
 -7.63500000e-03
 -7.62600000e-03
 -7.62900000e-03
 -7.60500000e-03
 -7.56800000e-03
 -7.55500000e-03
 -7.57500000e-03
 -7.57300000e-03
 -7.58100000e-03
 -7.55700000e-03
 -7.50800000e-03
 -7.48700000e-03
 -7.47300000e-03
 -7.46300000e-03
 -7.45600000e-03
 -7.44200000e-03
 -7.46500000e-03
 -7.51700000e-03
 -7.53900000e-03
 -7.55300000e-03
 -7.58300000e-03
 -7.60900000e-03
 -7.63800000e-03
 -7.65900000e-03
 -7.67100000e-03
 -7.67000000e-03
 -7.66100000e-03
 -7.67300000e-03
 -7.68000000e-03
 -7.67700000e-03
 -7.68000000e-03
 -7.68100000e-03
 -7.67200000e-03
 -7.68600000e-03
 -7.68800000e-03
 -7.67200000e-03
 -7.65200000e-03
 -7.62400000e-03
 -7.54000000e-03
 -7.37100000e-03
 -7.09600000e-03
 -6.74800000e-03
 -6.52500000e-03
 -6.58100000e-03
 -6.92500000e-03
 -7.38800000e-03
 -7.69600000e-03
 -7.87900000e-03
 -7.91500000e-03
 -7.82700000e-03
 -7.74800000e-03
 -7.71300000e-03
 -7.70500000e-03
 -7.70000000e-03
 -7.68300000e-03
 -7.68500000e-03
 -7.68900000e-03
 -7.69100000e-03
 -7.69500000e-03
 -7.68300000e-03
 -7.68100000e-03
 -7.68500000e-03
 -7.68500000e-03
 -7.68600000e-03
 -7.67500000e-03
 -7.66300000e-03
 -7.66100000e-03
 -7.66800000e-03
 -7.66400000e-03
 -7.66100000e-03
 -7.65400000e-03
 -7.65600000e-03
 -7.65300000e-03
 -7.64300000e-03
 -7.63100000e-03
 -7.61400000e-03
 -7.61400000e-03
 -7.62000000e-03
 -7.61700000e-03
 -7.60800000e-03
 -7.59700000e-03
 -7.59300000e-03
 -7.59200000e-03
 -7.58900000e-03
 -7.57800000e-03
 -7.56600000e-03
 -7.55900000e-03
 -7.54600000e-03
 -7.52600000e-03
 -7.49900000e-03
 -7.47700000e-03
 -7.45000000e-03
 -7.41500000e-03
 -7.39600000e-03
 -7.36800000e-03
 -7.32800000e-03
 -7.29600000e-03
 -7.26700000e-03
 -7.25200000e-03
 -7.22400000e-03
 -7.19000000e-03
 -7.18300000e-03
 -7.18600000e-03
 -7.18100000e-03
 -7.17200000e-03
 -7.17200000e-03
 -7.18100000e-03
 -7.20000000e-03
 -7.24800000e-03
 -7.30500000e-03
 -7.35200000e-03
 -7.40000000e-03
 -7.45400000e-03
 -7.50700000e-03
 -7.55200000e-03
 -7.58600000e-03
 -7.60200000e-03
 -7.63300000e-03
 -7.64400000e-03
 -7.63300000e-03
 -7.63700000e-03
 -7.65400000e-03
 -7.67000000e-03
 -7.67200000e-03
 -7.67200000e-03
 -7.66400000e-03
 -7.67400000e-03
 -7.68500000e-03
 -7.68500000e-03
 -7.68800000e-03
 -7.69100000e-03
 -7.69700000e-03
 -7.70900000e-03
 -7.70400000e-03
 -7.70500000e-03
 -7.71500000e-03
 -7.71500000e-03
 -7.71600000e-03
 -7.70300000e-03
 -7.69200000e-03
 -7.68800000e-03
 -7.68700000e-03
 -7.68600000e-03
 -7.68200000e-03
 -7.67800000e-03
 -7.66900000e-03
 -7.66600000e-03
 -7.66500000e-03
 -7.66000000e-03
 -7.65700000e-03
 -7.65500000e-03
 -7.65200000e-03
 -7.64500000e-03
 -7.64100000e-03
 -7.63500000e-03
 -7.63500000e-03
 -7.64000000e-03
 -7.64700000e-03
 -7.65200000e-03
 -7.65100000e-03
 -7.66500000e-03
 -7.67100000e-03
 -7.66300000e-03
 -7.66900000e-03
 -7.67800000e-03
 -7.68200000e-03
 -7.69000000e-03
 -7.69100000e-03
 -7.69200000e-03
 -7.69200000e-03
 -7.69300000e-03
 -7.70000000e-03
 -7.72000000e-03
 -7.71400000e-03
 -7.71300000e-03
 -7.71900000e-03
 -7.72000000e-03
 -7.71900000e-03
 -7.71300000e-03
 -7.70500000e-03
 -7.71900000e-03
 -7.73700000e-03
 -7.73000000e-03
 -7.71900000e-03
 -7.72100000e-03
 -7.72800000e-03
 -7.73900000e-03
 -7.74400000e-03
 -7.74800000e-03
 -7.75500000e-03
 -7.76700000e-03
 -7.77200000e-03
 -7.77500000e-03
 -7.77800000e-03
 -7.77700000e-03
 -7.78000000e-03
 -7.78600000e-03
 -7.79100000e-03
 -7.78500000e-03
 -7.77500000e-03
 -7.77700000e-03
 -7.78700000e-03
 -7.78900000e-03
 -7.78600000e-03
 -7.77200000e-03
 -7.73700000e-03
 -7.72400000e-03
 -7.72500000e-03
 -7.72500000e-03
 -7.72100000e-03
 -7.72600000e-03
 -7.72900000e-03
 -7.71500000e-03
 -7.69300000e-03
 -7.68000000e-03
 -7.65900000e-03
 -7.66000000e-03
 -7.68200000e-03
 -7.69600000e-03
 -7.72500000e-03
 -7.74900000e-03
 -7.75700000e-03
 -7.78600000e-03
 -7.83300000e-03
 -7.84800000e-03
 -7.85800000e-03
 -7.87300000e-03
 -7.88300000e-03
 -7.88200000e-03
 -7.88900000e-03
 -7.90100000e-03
 -7.89300000e-03
 -7.88600000e-03
 -7.88900000e-03
 -7.87600000e-03
 -7.86600000e-03
 -7.85900000e-03
 -7.84700000e-03
 -7.83500000e-03
 -7.79600000e-03
 -7.74000000e-03
 -7.60100000e-03
 -7.37500000e-03
 -7.04200000e-03
 -6.80000000e-03
 -6.75600000e-03
 -7.01700000e-03
 -7.47400000e-03
 -7.83000000e-03
 -8.00200000e-03
 -8.07800000e-03
 -8.05200000e-03
 -7.98000000e-03
 -7.91800000e-03
 -7.89100000e-03
 -7.87100000e-03
 -7.86300000e-03
 -7.86200000e-03
 -7.84000000e-03
 -7.82500000e-03
 -7.82400000e-03
 -7.82400000e-03
 -7.82300000e-03
 -7.82900000e-03
 -7.83900000e-03
 -7.82900000e-03
 -7.82300000e-03
 -7.81600000e-03
 -7.80300000e-03
 -7.79600000e-03
 -7.78900000e-03
 -7.79100000e-03
 -7.79100000e-03
 -7.78500000e-03
 -7.77600000e-03
 -7.76600000e-03
 -7.76800000e-03
 -7.77000000e-03
 -7.76500000e-03
 -7.76000000e-03
 -7.74600000e-03
 -7.73800000e-03
 -7.73100000e-03
 -7.72000000e-03
 -7.70900000e-03
 -7.69000000e-03
 -7.67000000e-03
 -7.65800000e-03
 -7.65100000e-03
 -7.63100000e-03
 -7.61100000e-03
 -7.60400000e-03
 -7.60100000e-03
 -7.58400000e-03
 -7.56100000e-03
 -7.52700000e-03
 -7.50100000e-03
 -7.48000000e-03
 -7.45800000e-03
 -7.43500000e-03
 -7.40200000e-03
 -7.36600000e-03
 -7.33600000e-03
 -7.31600000e-03
 -7.30800000e-03
 -7.29200000e-03
 -7.27300000e-03
 -7.27900000e-03
 -7.28100000e-03
 -7.29000000e-03
 -7.32600000e-03
 -7.37300000e-03
 -7.43400000e-03
 -7.49800000e-03
 -7.54800000e-03
 -7.60200000e-03
 -7.64700000e-03
 -7.68200000e-03
 -7.70800000e-03
 -7.73200000e-03
 -7.74100000e-03
 -7.76200000e-03
 -7.79000000e-03
 -7.79900000e-03
 -7.78500000e-03
 -7.79000000e-03
 -7.80000000e-03
 -7.81400000e-03
 -7.81800000e-03
 -7.81300000e-03
 -7.80200000e-03
 -7.81100000e-03
 -7.82800000e-03
 -7.82800000e-03
 -7.83400000e-03
 -7.83500000e-03
 -7.83800000e-03
 -7.84700000e-03
 -7.84700000e-03
 -7.84800000e-03
 -7.85100000e-03
 -7.85300000e-03
 -7.85400000e-03
 -7.86600000e-03
 -7.86900000e-03
 -7.85500000e-03
 -7.85700000e-03
 -7.86800000e-03
 -7.86700000e-03
 -7.85400000e-03
 -7.85300000e-03
 -7.84900000e-03
 -7.85000000e-03
 -7.84100000e-03
 -7.83300000e-03
 -7.84400000e-03
 -7.85200000e-03
 -7.83900000e-03
 -7.82600000e-03
 -7.82500000e-03
 -7.82700000e-03
 -7.83300000e-03
 -7.84300000e-03
 -7.85300000e-03
 -7.85100000e-03
 -7.84500000e-03
 -7.85700000e-03
 -7.86000000e-03
 -7.85600000e-03
 -7.86500000e-03
 -7.86500000e-03
 -7.86100000e-03
 -7.86600000e-03
 -7.87300000e-03
 -7.87300000e-03
 -7.86900000e-03
 -7.86400000e-03
 -7.87600000e-03
 -7.88100000e-03
 -7.87600000e-03
 -7.87700000e-03
 -7.88300000e-03
 -7.89000000e-03
 -7.88500000e-03
 -7.87400000e-03
 -7.87100000e-03
 -7.87300000e-03
 -7.87400000e-03
 -7.89200000e-03
 -7.88400000e-03
 -7.88100000e-03
 -7.89400000e-03
 -7.89000000e-03
 -7.86600000e-03
 -7.86500000e-03
 -7.86800000e-03
 -7.87000000e-03
 -7.87300000e-03
 -7.86500000e-03
 -7.86400000e-03
 -7.87000000e-03
 -7.88000000e-03
 -7.87300000e-03
 -7.86300000e-03
 -7.84000000e-03
 -7.81500000e-03
 -7.79400000e-03
 -7.77800000e-03
 -7.78500000e-03
 -7.78700000e-03
 -7.79400000e-03
 -7.78600000e-03
 -7.75700000e-03
 -7.72800000e-03
 -7.71100000e-03
 -7.68900000e-03
 -7.68800000e-03
 -7.69800000e-03
 -7.70800000e-03
 -7.72800000e-03
 -7.74600000e-03
 -7.76300000e-03
 -7.80300000e-03
 -7.84100000e-03
 -7.85400000e-03
 -7.87300000e-03
 -7.88200000e-03
 -7.88300000e-03
 -7.88200000e-03
 -7.87100000e-03
 -7.86300000e-03
 -7.87300000e-03
 -7.88500000e-03
 -7.87900000e-03
 -7.87200000e-03
 -7.86900000e-03
 -7.86800000e-03
 -7.86300000e-03
 -7.85000000e-03
 -7.81500000e-03
 -7.73600000e-03
 -7.61800000e-03
 -7.41000000e-03
 -7.07400000e-03
 -6.79400000e-03
 -6.71500000e-03
 -6.95900000e-03
 -7.41600000e-03
 -7.78600000e-03
 -7.97800000e-03
 -8.08300000e-03
 -8.06400000e-03
 -7.99400000e-03
 -7.93700000e-03
 -7.90600000e-03
 -7.89300000e-03
 -7.88400000e-03
 -7.87000000e-03
 -7.85700000e-03
 -7.84400000e-03
 -7.84500000e-03
 -7.84700000e-03
 -7.84800000e-03
 -7.84800000e-03
 -7.84200000e-03
 -7.82700000e-03
 -7.82300000e-03
 -7.82000000e-03
 -7.81700000e-03
 -7.80600000e-03
 -7.80700000e-03
 -7.80600000e-03
 -7.79100000e-03
 -7.78000000e-03
 -7.78300000e-03
 -7.77900000e-03
 -7.77900000e-03
 -7.77900000e-03
 -7.76700000e-03
 -7.73900000e-03
 -7.73700000e-03
 -7.72800000e-03
 -7.72300000e-03
 -7.71100000e-03
 -7.68100000e-03
 -7.67500000e-03
 -7.66900000e-03
 -7.66000000e-03
 -7.65700000e-03
 -7.63800000e-03
 -7.62700000e-03
 -7.60500000e-03
 -7.58500000e-03
 -7.57200000e-03
 -7.54600000e-03
 -7.51900000e-03
 -7.49000000e-03
 -7.46600000e-03
 -7.43600000e-03
 -7.39700000e-03
 -7.35700000e-03
 -7.33100000e-03
 -7.31600000e-03
 -7.29200000e-03
 -7.26100000e-03
 -7.23900000e-03
 -7.23400000e-03
 -7.22000000e-03
 -7.22600000e-03
 -7.24700000e-03
 -7.26600000e-03
 -7.31200000e-03
 -7.37100000e-03
 -7.43700000e-03
 -7.49600000e-03
 -7.53800000e-03
 -7.58300000e-03
 -7.61300000e-03
 -7.64400000e-03
 -7.67200000e-03
 -7.69400000e-03
 -7.71000000e-03
 -7.72600000e-03
 -7.73100000e-03
 -7.72500000e-03
 -7.73400000e-03
 -7.74900000e-03
 -7.73900000e-03
 -7.74000000e-03
 -7.74300000e-03
 -7.73600000e-03
 -7.73500000e-03
 -7.75100000e-03
 -7.75000000e-03
 -7.73300000e-03
 -7.73200000e-03
 -7.74200000e-03
 -7.74900000e-03
 -7.75500000e-03
 -7.74200000e-03
 -7.73900000e-03
 -7.74700000e-03
 -7.74300000e-03
 -7.74100000e-03
 -7.73600000e-03
 -7.72900000e-03
 -7.73300000e-03
 -7.73500000e-03
 -7.74000000e-03
 -7.74000000e-03
 -7.73500000e-03
 -7.73300000e-03
 -7.72600000e-03
 -7.73500000e-03
 -7.73200000e-03
 -7.72600000e-03
 -7.72000000e-03
 -7.71300000e-03
 -7.72200000e-03
 -7.71700000e-03
 -7.70900000e-03
 -7.71600000e-03
 -7.72400000e-03
 -7.72100000e-03
 -7.71200000e-03
 -7.71400000e-03
 -7.72000000e-03
 -7.72800000e-03
 -7.72800000e-03
 -7.71400000e-03
 -7.70800000e-03
 -7.72300000e-03
 -7.72600000e-03
 -7.73700000e-03
 -7.73900000e-03
 -7.72800000e-03
 -7.71900000e-03
 -7.71500000e-03
 -7.71800000e-03
 -7.72100000e-03
 -7.72300000e-03
 -7.72000000e-03
 -7.71200000e-03
 -7.71100000e-03
 -7.71300000e-03
 -7.71500000e-03
 -7.71500000e-03
 -7.71600000e-03
 -7.71900000e-03
 -7.71600000e-03
 -7.71100000e-03
 -7.72200000e-03
 -7.73000000e-03
 -7.72800000e-03
 -7.72200000e-03
 -7.71500000e-03
 -7.71700000e-03
 -7.72800000e-03
 -7.72400000e-03
 -7.72000000e-03
 -7.72000000e-03
 -7.72100000e-03
 -7.73000000e-03
 -7.74400000e-03
 -7.73500000e-03
 -7.72500000e-03
 -7.74300000e-03
 -7.74600000e-03
 -7.73200000e-03
 -7.73700000e-03
 -7.74500000e-03
 -7.74100000e-03
 -7.75000000e-03
 -7.74700000e-03
 -7.72400000e-03
 -7.69000000e-03
 -7.66500000e-03
 -7.65500000e-03
 -7.65800000e-03
 -7.66400000e-03
 -7.66800000e-03
 -7.65600000e-03
 -7.62200000e-03
 -7.59900000e-03
 -7.58400000e-03
 -7.56700000e-03
 -7.56700000e-03
 -7.58400000e-03
 -7.60400000e-03
 -7.62900000e-03
 -7.64200000e-03
 -7.68100000e-03
 -7.74000000e-03
 -7.76100000e-03
 -7.76100000e-03
 -7.77200000e-03
 -7.79000000e-03
 -7.80400000e-03
 -7.81200000e-03
 -7.79600000e-03
 -7.78600000e-03
 -7.78600000e-03
 -7.78700000e-03
 -7.77900000e-03
 -7.77600000e-03
 -7.78600000e-03
 -7.78700000e-03
 -7.77300000e-03
 -7.75400000e-03
 -7.70400000e-03
 -7.62400000e-03
 -7.47700000e-03
 -7.21300000e-03
 -6.86100000e-03
 -6.60000000e-03
 -6.61200000e-03
 -6.93500000e-03
 -7.40200000e-03
 -7.74400000e-03
 -7.94300000e-03
 -7.99700000e-03
 -7.91900000e-03
 -7.84100000e-03
 -7.79900000e-03
 -7.77500000e-03
 -7.75900000e-03
 -7.75800000e-03
 -7.76200000e-03
 -7.75600000e-03
 -7.75000000e-03
 -7.75900000e-03
 -7.76500000e-03
 -7.76400000e-03
 -7.76600000e-03
 -7.75500000e-03
 -7.74700000e-03
 -7.75000000e-03
 -7.74500000e-03
 -7.74300000e-03
 -7.73100000e-03
 -7.72100000e-03
 -7.71200000e-03
 -7.70700000e-03
 -7.69700000e-03
 -7.68300000e-03
 -7.67900000e-03
 -7.67700000e-03
 -7.66700000e-03
 -7.64900000e-03
 -7.62800000e-03
 -7.62100000e-03
 -7.61500000e-03
 -7.60600000e-03
 -7.59600000e-03
 -7.57700000e-03
 -7.56700000e-03
 -7.55600000e-03
 -7.55200000e-03
 -7.53900000e-03
 -7.52300000e-03
 -7.51500000e-03
 -7.48500000e-03
 -7.47200000e-03
 -7.45600000e-03
 -7.43400000e-03
 -7.41700000e-03
 -7.39100000e-03
 -7.36800000e-03
 -7.33900000e-03
 -7.29500000e-03
 -7.26800000e-03
 -7.24900000e-03
 -7.23500000e-03
 -7.20200000e-03
 -7.16300000e-03
 -7.14000000e-03
 -7.14000000e-03
 -7.14700000e-03
 -7.14900000e-03
 -7.16800000e-03
 -7.19200000e-03
 -7.23700000e-03
 -7.29500000e-03
 -7.35600000e-03
 -7.41000000e-03
 -7.46000000e-03
 -7.50900000e-03
 -7.55400000e-03
 -7.58500000e-03
 -7.60300000e-03
 -7.61500000e-03
 -7.63700000e-03
 -7.66700000e-03
 -7.67300000e-03
 -7.66900000e-03
 -7.67500000e-03
 -7.69600000e-03
 -7.70100000e-03
 -7.70900000e-03
 -7.70500000e-03
 -7.70100000e-03
 -7.70600000e-03
 -7.71400000e-03
 -7.71100000e-03
 -7.71300000e-03
 -7.70700000e-03
 -7.71200000e-03
 -7.71100000e-03
 -7.71000000e-03
 -7.71200000e-03
 -7.70600000e-03
 -7.69800000e-03
 -7.69400000e-03
 -7.68800000e-03
 -7.68200000e-03
 -7.68200000e-03
 -7.68300000e-03
 -7.69300000e-03
 -7.68900000e-03
 -7.67800000e-03
 -7.67600000e-03
 -7.67600000e-03
 -7.68200000e-03
 -7.69100000e-03
 -7.68200000e-03
 -7.68200000e-03
 -7.68900000e-03
 -7.69800000e-03
 -7.70100000e-03
 -7.68800000e-03
 -7.67700000e-03
 -7.69000000e-03
 -7.70200000e-03
 -7.70200000e-03
 -7.69900000e-03
 -7.71000000e-03
 -7.71700000e-03
 -7.71700000e-03
 -7.72300000e-03
 -7.72300000e-03
 -7.71800000e-03
 -7.71600000e-03
 -7.71200000e-03
 -7.71200000e-03
 -7.70900000e-03
 -7.71300000e-03
 -7.73000000e-03
 -7.73200000e-03
 -7.73100000e-03
 -7.72400000e-03
 -7.72000000e-03
 -7.71700000e-03
 -7.71900000e-03
 -7.72700000e-03
 -7.71500000e-03
 -7.72100000e-03
 -7.73000000e-03
 -7.72100000e-03
 -7.72500000e-03
 -7.72900000e-03
 -7.73300000e-03
 -7.73900000e-03
 -7.74700000e-03
 -7.76000000e-03
 -7.76300000e-03
 -7.75700000e-03
 -7.76400000e-03
 -7.76100000e-03
 -7.76700000e-03
 -7.77000000e-03
 -7.77100000e-03
 -7.77800000e-03
 -7.78100000e-03
 -7.77900000e-03
 -7.77600000e-03
 -7.77100000e-03
 -7.78200000e-03
 -7.78400000e-03
 -7.77100000e-03
 -7.77400000e-03
 -7.78100000e-03
 -7.78200000e-03
 -7.77700000e-03
 -7.77200000e-03
 -7.76300000e-03
 -7.76300000e-03
 -7.75200000e-03
 -7.75000000e-03
 -7.74000000e-03
 -7.70500000e-03
 -7.67600000e-03
 -7.65400000e-03
 -7.66300000e-03
 -7.65800000e-03
 -7.65400000e-03
 -7.63200000e-03
 -7.60700000e-03
 -7.60000000e-03
 -7.58400000e-03
 -7.56800000e-03
 -7.56300000e-03
 -7.57100000e-03
 -7.60000000e-03
 -7.63100000e-03
 -7.64500000e-03
 -7.65400000e-03
 -7.68600000e-03
 -7.73900000e-03
 -7.76400000e-03
 -7.76500000e-03
 -7.76800000e-03
 -7.77400000e-03
 -7.77500000e-03
 -7.78600000e-03
 -7.77600000e-03
 -7.77000000e-03
 -7.77400000e-03
 -7.77800000e-03
 -7.77600000e-03
 -7.77800000e-03
 -7.77700000e-03
 -7.76400000e-03
 -7.75400000e-03
 -7.72600000e-03
 -7.64600000e-03
 -7.47300000e-03
 -7.21600000e-03
 -6.86900000e-03
 -6.60900000e-03
 -6.60300000e-03
 -6.90600000e-03
 -7.38100000e-03
 -7.74700000e-03
 -7.95400000e-03
 -8.00100000e-03
 -7.91800000e-03
 -7.84800000e-03
 -7.81400000e-03
 -7.79900000e-03
 -7.79600000e-03
 -7.78900000e-03
 -7.78400000e-03
 -7.78300000e-03
 -7.78900000e-03
 -7.78700000e-03
 -7.78000000e-03
 -7.78800000e-03
 -7.79200000e-03
 -7.78500000e-03
 -7.77300000e-03
 -7.77500000e-03
 -7.77700000e-03
 -7.78200000e-03
 -7.78200000e-03
 -7.77800000e-03
 -7.79100000e-03
 -7.80100000e-03
 -7.80800000e-03
 -7.78600000e-03
 -7.75800000e-03
 -7.75400000e-03
 -7.74200000e-03
 -7.73600000e-03
 -7.72500000e-03
 -7.71100000e-03
 -7.69900000e-03
 -7.70400000e-03
 -7.70800000e-03
 -7.69600000e-03
 -7.67400000e-03
 -7.66500000e-03
 -7.66800000e-03
 -7.67000000e-03
 -7.66300000e-03
 -7.64900000e-03
 -7.63600000e-03
 -7.61700000e-03
 -7.60000000e-03
 -7.57500000e-03
 -7.54800000e-03
 -7.50700000e-03
 -7.47600000e-03
 -7.45400000e-03
 -7.42300000e-03
 -7.38800000e-03
 -7.35100000e-03
 -7.31600000e-03
 -7.29100000e-03
 -7.27700000e-03
 -7.25400000e-03
 -7.22500000e-03
 -7.20600000e-03
 -7.20200000e-03
 -7.21700000e-03
 -7.24200000e-03
 -7.29500000e-03
 -7.35500000e-03
 -7.39900000e-03
 -7.45200000e-03
 -7.50200000e-03
 -7.55400000e-03
 -7.60000000e-03
 -7.63800000e-03
 -7.66800000e-03
 -7.68200000e-03
 -7.69600000e-03
 -7.71500000e-03
 -7.73400000e-03
 -7.73400000e-03
 -7.73500000e-03
 -7.74200000e-03
 -7.74300000e-03
 -7.74200000e-03
 -7.74300000e-03
 -7.74500000e-03
 -7.73800000e-03
 -7.73600000e-03
 -7.74600000e-03
 -7.75600000e-03
 -7.74700000e-03
 -7.74400000e-03
 -7.75400000e-03
 -7.75200000e-03
 -7.75800000e-03
 -7.75100000e-03
 -7.75300000e-03
 -7.75300000e-03
 -7.75800000e-03
 -7.75600000e-03
 -7.74900000e-03
 -7.76000000e-03
 -7.77000000e-03
 -7.78000000e-03
 -7.78600000e-03
 -7.76800000e-03
 -7.75500000e-03
 -7.76200000e-03
 -7.77000000e-03
 -7.77400000e-03
 -7.77100000e-03
 -7.76100000e-03
 -7.77200000e-03
 -7.78600000e-03
 -7.77900000e-03
 -7.77500000e-03
 -7.78400000e-03
 -7.78600000e-03
 -7.78800000e-03
 -7.79400000e-03
 -7.79800000e-03
 -7.80100000e-03
 -7.79000000e-03
 -7.79500000e-03
 -7.79500000e-03
 -7.78700000e-03
 -7.77900000e-03
 -7.77100000e-03
 -7.76900000e-03
 -7.77400000e-03
 -7.75700000e-03
 -7.75400000e-03
 -7.75700000e-03
 -7.75700000e-03
 -7.77600000e-03
 -7.77400000e-03
 -7.75900000e-03
 -7.76300000e-03
 -7.77400000e-03
 -7.77500000e-03
 -7.77400000e-03
 -7.77900000e-03
 -7.78700000e-03
 -7.79700000e-03
 -7.80500000e-03
 -7.80100000e-03
 -7.79700000e-03
 -7.79100000e-03
 -7.79800000e-03
 -7.79800000e-03
 -7.79000000e-03
 -7.79300000e-03
 -7.80500000e-03
 -7.80700000e-03
 -7.80600000e-03
 -7.80100000e-03
 -7.79100000e-03
 -7.77800000e-03
 -7.77100000e-03
 -7.77800000e-03
 -7.77300000e-03
 -7.78200000e-03
 -7.78700000e-03
 -7.78500000e-03
 -7.79000000e-03
 -7.79000000e-03
 -7.79000000e-03
 -7.79900000e-03
 -7.80600000e-03
 -7.80800000e-03
 -7.80700000e-03
 -7.80400000e-03
 -7.79600000e-03
 -7.79100000e-03
 -7.75900000e-03
 -7.72500000e-03
 -7.69900000e-03
 -7.70400000e-03
 -7.72900000e-03
 -7.74500000e-03
 -7.73800000e-03
 -7.70700000e-03
 -7.69100000e-03
 -7.68300000e-03
 -7.67100000e-03
 -7.66900000e-03
 -7.66000000e-03
 -7.66700000e-03
 -7.70300000e-03
 -7.71900000e-03
 -7.73100000e-03
 -7.76700000e-03
 -7.79500000e-03
 -7.82300000e-03
 -7.84800000e-03
 -7.85300000e-03
 -7.85100000e-03
 -7.85700000e-03
 -7.85500000e-03
 -7.85500000e-03
 -7.84500000e-03
 -7.84600000e-03
 -7.84400000e-03
 -7.84700000e-03
 -7.86100000e-03
 -7.85800000e-03
 -7.84500000e-03
 -7.82600000e-03
 -7.78400000e-03
 -7.71200000e-03
 -7.56200000e-03
 -7.32400000e-03
 -6.98400000e-03
 -6.71600000e-03
 -6.67600000e-03
 -6.95600000e-03
 -7.43600000e-03
 -7.81900000e-03
 -8.04300000e-03
 -8.12400000e-03
 -8.07000000e-03
 -7.99700000e-03
 -7.95000000e-03
 -7.94800000e-03
 -7.95000000e-03
 -7.93800000e-03
 -7.93600000e-03
 -7.93100000e-03
 -7.93300000e-03
 -7.94800000e-03
 -7.95000000e-03
 -7.94900000e-03
 -7.95100000e-03
 -7.95100000e-03
 -7.96600000e-03
 -7.97800000e-03
 -7.98100000e-03
 -7.97700000e-03
 -7.96500000e-03
 -7.95200000e-03
 -7.95500000e-03
 -7.95600000e-03
 -7.97200000e-03
 -7.98100000e-03
 -7.97800000e-03
 -7.97700000e-03
 -7.96900000e-03
 -7.95900000e-03
 -7.97100000e-03
 -7.96400000e-03
 -7.94400000e-03
 -7.93600000e-03
 -7.93900000e-03
 -7.93900000e-03
 -7.93700000e-03
 -7.92800000e-03
 -7.92100000e-03
 -7.91400000e-03
 -7.89800000e-03
 -7.87100000e-03
 -7.86100000e-03
 -7.84400000e-03
 -7.83900000e-03
 -7.82500000e-03
 -7.79800000e-03
 -7.76700000e-03
 -7.75000000e-03
 -7.72900000e-03
 -7.69700000e-03
 -7.66300000e-03
 -7.62300000e-03
 -7.59000000e-03
 -7.57200000e-03
 -7.56500000e-03
 -7.55100000e-03
 -7.52600000e-03
 -7.50200000e-03
 -7.50200000e-03
 -7.52900000e-03
 -7.55700000e-03
 -7.59100000e-03
 -7.64700000e-03
 -7.71400000e-03
 -7.77500000e-03
 -7.81900000e-03
 -7.85300000e-03
 -7.89400000e-03
 -7.94000000e-03
 -7.98200000e-03
 -7.99400000e-03
 -8.00200000e-03
 -8.01500000e-03
 -8.02400000e-03
 -8.05000000e-03
 -8.06400000e-03
 -8.06200000e-03
 -8.05600000e-03
 -8.06400000e-03
 -8.06900000e-03
 -8.06900000e-03
 -8.05200000e-03
 -8.04900000e-03
 -8.06200000e-03
 -8.06300000e-03
 -8.06800000e-03
 -8.05800000e-03
 -8.05400000e-03
 -8.06800000e-03
 -8.06700000e-03
 -8.05800000e-03
 -8.04800000e-03
 -8.04800000e-03
 -8.04900000e-03
 -8.04900000e-03
 -8.04700000e-03
 -8.04000000e-03
 -8.03200000e-03
 -8.04000000e-03
 -8.04000000e-03
 -8.03700000e-03
 -8.02700000e-03
 -8.00400000e-03
 -7.99600000e-03
 -8.00800000e-03
 -8.01300000e-03
 -8.00200000e-03
 -8.00400000e-03
 -7.99700000e-03
 -7.99500000e-03
 -7.99400000e-03
 -7.98900000e-03
 -7.99300000e-03
 -7.99800000e-03
 -8.01000000e-03
 -8.01600000e-03
 -8.00800000e-03
 -8.00900000e-03
 -8.01500000e-03
 -8.00900000e-03
 -8.01500000e-03
 -8.02400000e-03
 -8.02100000e-03
 -8.01700000e-03
 -8.01900000e-03
 -8.02900000e-03
 -8.02900000e-03
 -8.04100000e-03
 -8.05900000e-03
 -8.04600000e-03
 -8.03200000e-03
 -8.03200000e-03
 -8.03500000e-03
 -8.05700000e-03
 -8.06900000e-03
 -8.07300000e-03
 -8.06500000e-03
 -8.05400000e-03
 -8.05800000e-03
 -8.07000000e-03
 -8.06700000e-03
 -8.06400000e-03
 -8.06200000e-03
 -8.07900000e-03
 -8.09100000e-03
 -8.08600000e-03
 -8.08600000e-03
 -8.08500000e-03
 -8.08400000e-03
 -8.08200000e-03
 -8.09500000e-03
 -8.10100000e-03
 -8.11000000e-03
 -8.10700000e-03
 -8.11400000e-03
 -8.11500000e-03
 -8.10300000e-03
 -8.10800000e-03
 -8.11400000e-03
 -8.10900000e-03
 -8.10000000e-03
 -8.08100000e-03
 -8.05200000e-03
 -8.05100000e-03
 -8.06100000e-03
 -8.06900000e-03
 -8.06200000e-03
 -8.03200000e-03
 -7.99900000e-03
 -7.99000000e-03
 -7.97800000e-03
 -7.95500000e-03
 -7.95200000e-03
 -7.96600000e-03
 -7.99200000e-03
 -8.01800000e-03
 -8.03000000e-03
 -8.06000000e-03
 -8.09200000e-03
 -8.10500000e-03
 -8.14100000e-03
 -8.16600000e-03
 -8.16700000e-03
 -8.16900000e-03
 -8.18000000e-03
 -8.17800000e-03
 -8.17000000e-03
 -8.17000000e-03
 -8.16600000e-03
 -8.15400000e-03
 -8.14700000e-03
 -8.13700000e-03
 -8.12300000e-03
 -8.12200000e-03
 -8.11000000e-03
 -8.06300000e-03
 -7.96200000e-03
 -7.78800000e-03
 -7.48700000e-03
 -7.16700000e-03
 -6.97600000e-03
 -7.07500000e-03
 -7.46600000e-03
 -7.91400000e-03
 -8.17500000e-03
 -8.31500000e-03
 -8.35800000e-03
 -8.30400000e-03
 -8.22000000e-03
 -8.18100000e-03
 -8.16200000e-03
 -8.12800000e-03
 -8.11000000e-03
 -8.11100000e-03
 -8.11500000e-03
 -8.10000000e-03
 -8.08900000e-03
 -8.09700000e-03
 -8.09300000e-03
 -8.08600000e-03
 -8.07600000e-03
 -8.06900000e-03
 -8.07100000e-03
 -8.06500000e-03
 -8.05500000e-03
 -8.05700000e-03
 -8.04900000e-03
 -8.04500000e-03
 -8.03400000e-03
 -8.04300000e-03
 -8.04200000e-03
 -8.01600000e-03
 -7.99900000e-03
 -8.01700000e-03
 -8.01800000e-03
 -8.00500000e-03
 -7.99300000e-03
 -7.98800000e-03
 -7.97900000e-03
 -7.96800000e-03
 -7.96900000e-03
 -7.95800000e-03
 -7.93800000e-03
 -7.92200000e-03
 -7.91800000e-03
 -7.90600000e-03
 -7.88900000e-03
 -7.87400000e-03
 -7.86000000e-03
 -7.83600000e-03
 -7.81100000e-03
 -7.78100000e-03
 -7.75700000e-03
 -7.73800000e-03
 -7.71800000e-03
 -7.68700000e-03
 -7.63700000e-03
 -7.60500000e-03
 -7.58600000e-03
 -7.56700000e-03
 -7.54800000e-03
 -7.52300000e-03
 -7.50200000e-03
 -7.50300000e-03
 -7.50700000e-03
 -7.52000000e-03
 -7.54800000e-03
 -7.59800000e-03
 -7.65500000e-03
 -7.71200000e-03
 -7.77400000e-03
 -7.82500000e-03
 -7.86600000e-03
 -7.91100000e-03
 -7.94400000e-03
 -7.96400000e-03
 -7.98000000e-03
 -7.97600000e-03
 -7.99800000e-03
 -8.01400000e-03
 -8.01700000e-03
 -8.01600000e-03
 -8.01400000e-03
 -8.02700000e-03
 -8.03600000e-03
 -8.04300000e-03
 -8.03700000e-03
 -8.03500000e-03
 -8.03600000e-03
 -8.03800000e-03
 -8.03500000e-03
 -8.02100000e-03
 -8.02900000e-03
 -8.04100000e-03
 -8.04100000e-03
 -8.03900000e-03
 -8.02400000e-03
 -8.01200000e-03
 -8.02300000e-03
 -8.01800000e-03
 -8.01000000e-03
 -8.00400000e-03
 -8.00100000e-03
 -8.01400000e-03
 -8.01000000e-03
 -8.00400000e-03
 -8.00600000e-03
 -8.00600000e-03
 -8.00400000e-03
 -8.00600000e-03
 -8.00100000e-03
 -7.98700000e-03
 -7.99200000e-03
 -8.00700000e-03
 -8.01600000e-03
 -8.01900000e-03
 -8.00600000e-03
 -7.99700000e-03
 -7.99800000e-03
 -8.00600000e-03
 -8.00300000e-03
 -8.00500000e-03
 -8.00400000e-03
 -8.00200000e-03
 -8.00300000e-03
 -8.00800000e-03
 -7.99900000e-03
 -8.00500000e-03
 -8.02500000e-03
 -8.02700000e-03
 -8.01400000e-03
 -8.00000000e-03
 -7.99800000e-03
 -8.00800000e-03
 -8.01300000e-03
 -8.00600000e-03
 -7.99900000e-03
 -7.99200000e-03
 -7.99400000e-03
 -7.99700000e-03
 -8.00100000e-03
 -7.99600000e-03
 -8.00300000e-03
 -8.01300000e-03
 -8.01800000e-03
 -8.01800000e-03
 -8.01400000e-03
 -8.00600000e-03
 -8.01100000e-03
 -8.02000000e-03
 -8.02000000e-03
 -8.01300000e-03
 -8.00100000e-03
 -8.00600000e-03
 -8.00900000e-03
 -8.00100000e-03
 -7.99100000e-03
 -7.98700000e-03
 -7.99900000e-03
 -8.00700000e-03
 -8.00100000e-03
 -8.00300000e-03
 -8.00300000e-03
 -8.01400000e-03
 -8.01000000e-03
 -8.00700000e-03
 -7.99900000e-03
 -7.98700000e-03
 -7.98400000e-03
 -7.97100000e-03
 -7.95500000e-03
 -7.93300000e-03
 -7.91400000e-03
 -7.90600000e-03
 -7.91000000e-03
 -7.92300000e-03
 -7.92600000e-03
 -7.89500000e-03
 -7.86500000e-03
 -7.85800000e-03
 -7.84800000e-03
 -7.83100000e-03
 -7.83100000e-03
 -7.84100000e-03
 -7.86400000e-03
 -7.88800000e-03
 -7.89500000e-03
 -7.92300000e-03
 -7.97100000e-03
 -7.99600000e-03
 -7.99800000e-03
 -8.00000000e-03
 -8.02400000e-03
 -8.03400000e-03
 -8.03200000e-03
 -8.02500000e-03
 -8.01100000e-03
 -8.00800000e-03
 -8.00600000e-03
 -8.00400000e-03
 -8.00600000e-03
 -7.99700000e-03
 -7.99300000e-03
 -7.98500000e-03
 -7.94800000e-03
 -7.88500000e-03
 -7.76000000e-03
 -7.55800000e-03
 -7.22900000e-03
 -6.90400000e-03
 -6.75500000e-03
 -6.92500000e-03
 -7.35300000e-03
 -7.79700000e-03
 -8.07400000e-03
 -8.22000000e-03
 -8.19300000e-03
 -8.09600000e-03
 -8.02800000e-03
 -8.00700000e-03
 -7.99300000e-03
 -7.98300000e-03
 -7.97200000e-03
 -7.97200000e-03
 -7.97300000e-03
 -7.97400000e-03
 -7.97200000e-03
 -7.96300000e-03
 -7.96800000e-03
 -7.96800000e-03
 -7.95200000e-03
 -7.94300000e-03
 -7.93900000e-03
 -7.93600000e-03
 -7.92600000e-03
 -7.91700000e-03
 -7.91200000e-03
 -7.91000000e-03
 -7.91500000e-03
 -7.91400000e-03
 -7.90200000e-03
 -7.90300000e-03
 -7.88600000e-03
 -7.87900000e-03
 -7.86600000e-03
 -7.85500000e-03
 -7.84200000e-03
 -7.83100000e-03
 -7.84100000e-03
 -7.83900000e-03
 -7.82500000e-03
 -7.80200000e-03
 -7.78600000e-03
 -7.77700000e-03
 -7.77000000e-03
 -7.75900000e-03
 -7.73400000e-03
 -7.70900000e-03
 -7.68700000e-03
 -7.67500000e-03
 -7.65100000e-03
 -7.62500000e-03
 -7.59700000e-03
 -7.55800000e-03
 -7.53900000e-03
 -7.51200000e-03
 -7.47100000e-03
 -7.44000000e-03
 -7.42400000e-03
 -7.40700000e-03
 -7.39000000e-03
 -7.36900000e-03
 -7.35700000e-03
 -7.35700000e-03
 -7.37600000e-03
 -7.39600000e-03
 -7.43300000e-03
 -7.48500000e-03
 -7.53900000e-03
 -7.59300000e-03
 -7.65900000e-03
 -7.70900000e-03
 -7.74400000e-03
 -7.78300000e-03
 -7.81200000e-03
 -7.83600000e-03
 -7.85200000e-03
 -7.86000000e-03
 -7.87600000e-03
 -7.89500000e-03
 -7.89500000e-03
 -7.89400000e-03
 -7.89600000e-03
 -7.90400000e-03
 -7.92400000e-03
 -7.92500000e-03
 -7.91000000e-03
 -7.90000000e-03
 -7.90800000e-03
 -7.90100000e-03
 -7.88800000e-03
 -7.88300000e-03
 -7.89800000e-03
 -7.89800000e-03
 -7.89400000e-03
 -7.89100000e-03
 -7.88100000e-03
 -7.87800000e-03
 -7.88200000e-03
 -7.88600000e-03
 -7.88300000e-03
 -7.88000000e-03
 -7.87400000e-03
 -7.87700000e-03
 -7.89000000e-03
 -7.88400000e-03
 -7.87100000e-03
 -7.87900000e-03
 -7.88200000e-03
 -7.87900000e-03
 -7.87300000e-03
 -7.87500000e-03
 -7.87000000e-03
 -7.87300000e-03
 -7.88500000e-03
 -7.87300000e-03
 -7.87400000e-03
 -7.88300000e-03
 -7.89100000e-03
 -7.90100000e-03
 -7.88700000e-03
 -7.88600000e-03
 -7.89400000e-03
 -7.89600000e-03
 -7.90200000e-03
 -7.90200000e-03
 -7.90200000e-03
 -7.90800000e-03
 -7.91300000e-03
 -7.92800000e-03
 -7.91700000e-03
 -7.90800000e-03
 -7.91300000e-03
 -7.93300000e-03
 -7.93300000e-03
 -7.91700000e-03
 -7.90700000e-03
 -7.91600000e-03
 -7.93000000e-03
 -7.93400000e-03
 -7.92900000e-03
 -7.92700000e-03
 -7.94500000e-03
 -7.95900000e-03
 -7.96900000e-03
 -7.95200000e-03
 -7.93900000e-03
 -7.93600000e-03
 -7.94500000e-03
 -7.95300000e-03
 -7.95400000e-03
 -7.95200000e-03
 -7.93900000e-03
 -7.94200000e-03
 -7.95800000e-03
 -7.95900000e-03
 -7.94200000e-03
 -7.93800000e-03
 -7.95200000e-03
 -7.95800000e-03
 -7.95300000e-03
 -7.95100000e-03
 -7.96300000e-03
 -7.97100000e-03
 -7.97700000e-03
 -7.97900000e-03
 -7.97600000e-03
 -7.96500000e-03
 -7.95900000e-03
 -7.97000000e-03
 -7.97400000e-03
 -7.95700000e-03
 -7.92500000e-03
 -7.90300000e-03
 -7.89900000e-03
 -7.90200000e-03
 -7.89700000e-03
 -7.90000000e-03
 -7.88900000e-03
 -7.86000000e-03
 -7.83800000e-03
 -7.81400000e-03
 -7.81200000e-03
 -7.81800000e-03
 -7.82700000e-03
 -7.85000000e-03
 -7.87400000e-03
 -7.88900000e-03
 -7.92700000e-03
 -7.97000000e-03
 -7.99100000e-03
 -7.99400000e-03
 -8.01000000e-03
 -8.03700000e-03
 -8.04700000e-03
 -8.03800000e-03
 -8.03500000e-03
 -8.03300000e-03
 -8.02900000e-03
 -8.03700000e-03
 -8.04200000e-03
 -8.02100000e-03
 -8.01700000e-03
 -8.02900000e-03
 -8.02600000e-03
 -7.98900000e-03
 -7.92900000e-03
 -7.82000000e-03
 -7.64000000e-03
 -7.34800000e-03
 -7.03200000e-03
 -6.83400000e-03
 -6.93000000e-03
 -7.33400000e-03
 -7.80600000e-03
 -8.07200000e-03
 -8.22600000e-03
 -8.26600000e-03
 -8.20500000e-03
 -8.11900000e-03
 -8.09500000e-03
 -8.08300000e-03
 -8.06300000e-03
 -8.05700000e-03
 -8.04400000e-03
 -8.04000000e-03
 -8.02500000e-03
 -8.02200000e-03
 -8.02600000e-03
 -8.03800000e-03
 -8.04400000e-03
 -8.04800000e-03
 -8.04000000e-03
 -8.02400000e-03
 -8.01800000e-03
 -8.03200000e-03
 -8.02700000e-03
 -8.01800000e-03
 -8.02900000e-03
 -8.03100000e-03
 -8.01400000e-03
 -7.99500000e-03
 -7.99000000e-03
 -7.98300000e-03
 -7.99400000e-03
 -7.99300000e-03
 -7.98300000e-03
 -7.97600000e-03
 -7.97900000e-03
 -7.97500000e-03
 -7.96400000e-03
 -7.94800000e-03
 -7.92900000e-03
 -7.91000000e-03
 -7.89300000e-03
 -7.87400000e-03
 -7.87700000e-03
 -7.86000000e-03
 -7.84100000e-03
 -7.82400000e-03
 -7.80200000e-03
 -7.77900000e-03
 -7.76400000e-03
 -7.74000000e-03
 -7.71200000e-03
 -7.67900000e-03
 -7.65100000e-03
 -7.63100000e-03
 -7.60100000e-03
 -7.58000000e-03
 -7.55800000e-03
 -7.52800000e-03
 -7.51100000e-03
 -7.51400000e-03
 -7.51900000e-03
 -7.51800000e-03
 -7.52600000e-03
 -7.55000000e-03
 -7.60400000e-03
 -7.66600000e-03
 -7.73300000e-03
 -7.78900000e-03
 -7.84400000e-03
 -7.89200000e-03
 -7.93000000e-03
 -7.96100000e-03
 -7.97400000e-03
 -7.99200000e-03
 -8.01100000e-03
 -8.02400000e-03
 -8.02600000e-03
 -8.03300000e-03
 -8.04100000e-03
 -8.05200000e-03
 -8.06000000e-03
 -8.05800000e-03
 -8.06000000e-03
 -8.06700000e-03
 -8.08000000e-03
 -8.07200000e-03
 -8.06900000e-03
 -8.08000000e-03
 -8.09100000e-03
 -8.10000000e-03
 -8.10300000e-03
 -8.10100000e-03
 -8.09600000e-03
 -8.09600000e-03
 -8.09800000e-03
 -8.09300000e-03
 -8.09800000e-03
 -8.08600000e-03
 -8.09000000e-03
 -8.10100000e-03
 -8.10000000e-03
 -8.09700000e-03
 -8.09900000e-03
 -8.09200000e-03
 -8.09000000e-03
 -8.10400000e-03
 -8.10000000e-03
 -8.10000000e-03
 -8.10500000e-03
 -8.10300000e-03
 -8.08900000e-03
 -8.08300000e-03
 -8.08400000e-03
 -8.08100000e-03
 -8.08900000e-03
 -8.10700000e-03
 -8.11100000e-03
 -8.11200000e-03
 -8.11200000e-03
 -8.11200000e-03
 -8.11300000e-03
 -8.11200000e-03
 -8.11700000e-03
 -8.11200000e-03
 -8.10600000e-03
 -8.12100000e-03
 -8.12100000e-03
 -8.12000000e-03
 -8.11600000e-03
 -8.10500000e-03
 -8.11900000e-03
 -8.12800000e-03
 -8.13000000e-03
 -8.13000000e-03
 -8.13200000e-03
 -8.14400000e-03
 -8.15500000e-03
 -8.15200000e-03
 -8.14900000e-03
 -8.14700000e-03
 -8.15100000e-03
 -8.14600000e-03
 -8.13700000e-03
 -8.13400000e-03
 -8.15300000e-03
 -8.14600000e-03
 -8.14800000e-03
 -8.14600000e-03
 -8.14500000e-03
 -8.15500000e-03
 -8.14700000e-03
 -8.14800000e-03
 -8.14800000e-03
 -8.13800000e-03
 -8.13400000e-03
 -8.15100000e-03
 -8.15600000e-03
 -8.12400000e-03
 -8.09600000e-03
 -8.08600000e-03
 -8.07200000e-03
 -8.07100000e-03
 -8.07600000e-03
 -8.08800000e-03
 -8.09600000e-03
 -8.07100000e-03
 -8.03200000e-03
 -8.01400000e-03
 -8.01400000e-03
 -8.02600000e-03
 -8.02700000e-03
 -8.03300000e-03
 -8.05600000e-03
 -8.08100000e-03
 -8.09300000e-03
 -8.13000000e-03
 -8.18500000e-03
 -8.19900000e-03
 -8.20000000e-03
 -8.21900000e-03
 -8.23400000e-03
 -8.23200000e-03
 -8.22600000e-03
 -8.22700000e-03
 -8.22700000e-03
 -8.21700000e-03
 -8.21600000e-03
 -8.21300000e-03
 -8.20700000e-03
 -8.21400000e-03
 -8.21100000e-03
 -8.19800000e-03
 -8.15300000e-03
 -8.08600000e-03
 -7.97500000e-03
 -7.75900000e-03
 -7.40700000e-03
 -7.10100000e-03
 -7.01500000e-03
 -7.27400000e-03
 -7.73600000e-03
 -8.10200000e-03
 -8.28300000e-03
 -8.38600000e-03
 -8.39000000e-03
 -8.33100000e-03
 -8.27400000e-03
 -8.24400000e-03
 -8.22100000e-03
 -8.20300000e-03
 -8.18600000e-03
 -8.18900000e-03
 -8.19000000e-03
 -8.19300000e-03
 -8.20500000e-03
 -8.20500000e-03
 -8.19500000e-03
 -8.19600000e-03
 -8.18800000e-03
 -8.17500000e-03
 -8.16300000e-03
 -8.14700000e-03
 -8.14400000e-03
 -8.13800000e-03
 -8.14100000e-03
 -8.14300000e-03
 -8.14500000e-03
 -8.13700000e-03
 -8.12900000e-03
 -8.13100000e-03
 -8.10900000e-03
 -8.10300000e-03
 -8.10800000e-03
 -8.09800000e-03
 -8.08300000e-03
 -8.07900000e-03
 -8.07400000e-03
 -8.06200000e-03
 -8.04600000e-03
 -8.04600000e-03
 -8.02900000e-03
 -8.00500000e-03
 -7.99000000e-03
 -7.96700000e-03
 -7.95400000e-03
 -7.93700000e-03
 -7.91500000e-03
 -7.89100000e-03
 -7.86800000e-03
 -7.84900000e-03
 -7.83100000e-03
 -7.80200000e-03
 -7.76100000e-03
 -7.74700000e-03
 -7.72400000e-03
 -7.70100000e-03
 -7.66800000e-03
 -7.63000000e-03
 -7.60600000e-03
 -7.59800000e-03
 -7.59800000e-03
 -7.59000000e-03
 -7.59900000e-03
 -7.62400000e-03
 -7.66600000e-03
 -7.71400000e-03
 -7.77900000e-03
 -7.82100000e-03
 -7.86300000e-03
 -7.91100000e-03
 -7.96100000e-03
 -7.98200000e-03
 -8.00200000e-03
 -8.02900000e-03
 -8.05700000e-03
 -8.06900000e-03
 -8.07600000e-03
 -8.07400000e-03
 -8.07000000e-03
 -8.09000000e-03
 -8.10500000e-03
 -8.11100000e-03
 -8.10700000e-03
 -8.09000000e-03
 -8.09300000e-03
 -8.09800000e-03
 -8.09400000e-03
 -8.08400000e-03
 -8.07800000e-03
 -8.08500000e-03
 -8.09200000e-03
 -8.09700000e-03
 -8.08900000e-03
 -8.09400000e-03
 -8.09900000e-03
 -8.09400000e-03
 -8.09500000e-03
 -8.08600000e-03
 -8.07500000e-03
 -8.07300000e-03
 -8.06800000e-03
 -8.06100000e-03
 -8.05100000e-03
 -8.04800000e-03
 -8.04200000e-03
 -8.04800000e-03
 -8.04000000e-03
 -8.02800000e-03
 -8.02500000e-03
 -8.03100000e-03
 -8.03200000e-03
 -8.02100000e-03
 -8.00000000e-03
 -7.99800000e-03
 -8.00400000e-03
 -8.01400000e-03
 -8.00100000e-03
 -8.00000000e-03
 -7.99600000e-03
 -8.00100000e-03
 -8.01100000e-03
 -8.00800000e-03
 -8.00700000e-03
 -8.00200000e-03
 -8.00500000e-03
 -8.00700000e-03
 -8.00300000e-03
 -7.99500000e-03
 -7.99500000e-03
 -8.00100000e-03
 -8.00500000e-03
 -8.00600000e-03
 -7.99500000e-03
 -7.98200000e-03
 -7.99400000e-03
 -7.99900000e-03
 -7.99800000e-03
 -7.99200000e-03
 -7.99400000e-03
 -8.00300000e-03
 -7.99800000e-03
 -7.99900000e-03
 -8.00200000e-03
 -7.99400000e-03
 -7.99500000e-03
 -8.00600000e-03
 -8.00700000e-03
 -8.00200000e-03
 -8.00400000e-03
 -8.01800000e-03
 -8.01900000e-03
 -8.01700000e-03
 -8.01700000e-03
 -8.01400000e-03
 -8.02100000e-03
 -8.00300000e-03
 -7.99000000e-03
 -7.96300000e-03
 -7.93300000e-03
 -7.91400000e-03
 -7.90900000e-03
 -7.92000000e-03
 -7.93100000e-03
 -7.90900000e-03
 -7.87000000e-03
 -7.85800000e-03
 -7.85400000e-03
 -7.82700000e-03
 -7.81300000e-03
 -7.82400000e-03
 -7.85100000e-03
 -7.88200000e-03
 -7.89200000e-03
 -7.89600000e-03
 -7.93700000e-03
 -7.98600000e-03
 -8.00000000e-03
 -8.00500000e-03
 -8.02300000e-03
 -8.03900000e-03
 -8.04800000e-03
 -8.04600000e-03
 -8.03100000e-03
 -8.03200000e-03
 -8.03500000e-03
 -8.03500000e-03
 -8.03000000e-03
 -8.03600000e-03
 -8.03700000e-03
 -8.02900000e-03
 -8.02000000e-03
 -7.98100000e-03
 -7.89300000e-03
 -7.74700000e-03
 -7.50700000e-03
 -7.14800000e-03
 -6.84000000e-03
 -6.77100000e-03
 -7.06000000e-03
 -7.55300000e-03
 -7.97100000e-03
 -8.20200000e-03
 -8.27000000e-03
 -8.19800000e-03
 -8.11900000e-03
 -8.07800000e-03
 -8.06100000e-03
 -8.04900000e-03
 -8.04300000e-03
 -8.04400000e-03
 -8.04500000e-03
 -8.04500000e-03
 -8.04400000e-03
 -8.03800000e-03
 -8.04900000e-03
 -8.04400000e-03
 -8.03900000e-03
 -8.03900000e-03
 -8.03900000e-03
 -8.02900000e-03
 -8.02400000e-03
 -8.01300000e-03
 -8.01600000e-03
 -8.01000000e-03
 -8.00400000e-03
 -7.99900000e-03
 -7.98600000e-03
 -7.96800000e-03
 -7.97300000e-03
 -7.97400000e-03
 -7.96300000e-03
 -7.95400000e-03
 -7.94100000e-03
 -7.94100000e-03
 -7.95200000e-03
 -7.95800000e-03
 -7.94100000e-03
 -7.93300000e-03
 -7.92300000e-03
 -7.92300000e-03
 -7.91200000e-03
 -7.88900000e-03
 -7.85800000e-03
 -7.83800000e-03
 -7.82700000e-03
 -7.80500000e-03
 -7.77600000e-03
 -7.74200000e-03
 -7.71500000e-03
 -7.69700000e-03
 -7.66900000e-03
 -7.63400000e-03
 -7.59500000e-03
 -7.57000000e-03
 -7.55900000e-03
 -7.54900000e-03
 -7.52900000e-03
 -7.49800000e-03
 -7.47400000e-03
 -7.46100000e-03
 -7.46300000e-03
 -7.46700000e-03
 -7.48000000e-03
 -7.51700000e-03
 -7.58400000e-03
 -7.64700000e-03
 -7.70300000e-03
 -7.75500000e-03
 -7.79700000e-03
 -7.84400000e-03
 -7.89000000e-03
 -7.91400000e-03
 -7.92900000e-03
 -7.94300000e-03
 -7.95700000e-03
 -7.97400000e-03
 -7.98400000e-03
 -7.98800000e-03
 -8.00200000e-03
 -8.00800000e-03
 -8.01300000e-03
 -8.01600000e-03
 -8.01700000e-03
 -8.02100000e-03
 -8.02300000e-03
 -8.03600000e-03
 -8.04300000e-03
 -8.03500000e-03
 -8.03400000e-03
 -8.04300000e-03
 -8.04700000e-03
 -8.04800000e-03
 -8.04700000e-03
 -8.05700000e-03
 -8.06200000e-03
 -8.06200000e-03
 -8.06600000e-03
 -8.05900000e-03
 -8.04700000e-03
 -8.02500000e-03
 -8.02000000e-03
 -8.02700000e-03
 -8.01100000e-03
 -7.98700000e-03
 -7.97400000e-03
 -7.96200000e-03
 -7.95800000e-03
 -7.96300000e-03
 -7.97900000e-03
 -7.99500000e-03
 -8.00100000e-03
 -7.98700000e-03
 -7.98000000e-03
 -7.99300000e-03
 -8.01000000e-03
 -8.02200000e-03
 -8.02100000e-03
 -8.02000000e-03
 -8.01600000e-03
 -8.02500000e-03
 -8.03600000e-03
 -8.03200000e-03
 -8.02000000e-03
 -8.00800000e-03
 -8.01700000e-03
 -8.01900000e-03
 -8.02300000e-03
 -8.01900000e-03
 -8.01600000e-03
 -8.01100000e-03
 -8.02400000e-03
 -8.02700000e-03
 -8.01800000e-03
 -8.01700000e-03
 -8.01500000e-03
 -8.01500000e-03
 -8.00000000e-03
 -7.98900000e-03
 -7.99500000e-03
 -8.00300000e-03
 -8.00500000e-03
 -7.99700000e-03
 -7.98100000e-03
 -7.98800000e-03
 -8.01300000e-03
 -8.02300000e-03
 -8.02300000e-03
 -8.01200000e-03
 -8.00800000e-03
 -8.00900000e-03
 -8.01000000e-03
 -8.00600000e-03
 -7.99300000e-03
 -7.98800000e-03
 -7.99000000e-03
 -7.99500000e-03
 -7.99900000e-03
 -7.99400000e-03
 -7.98400000e-03
 -7.98500000e-03
 -7.96900000e-03
 -7.94800000e-03
 -7.94300000e-03
 -7.94700000e-03
 -7.96600000e-03
 -7.96700000e-03
 -7.95200000e-03
 -7.92100000e-03
 -7.90100000e-03
 -7.88800000e-03
 -7.86000000e-03
 -7.84900000e-03
 -7.86300000e-03
 -7.88700000e-03
 -7.92500000e-03
 -7.94300000e-03
 -7.95800000e-03
 -7.99400000e-03
 -8.03900000e-03
 -8.04900000e-03
 -8.06900000e-03
 -8.08800000e-03
 -8.09600000e-03
 -8.10300000e-03
 -8.10900000e-03
 -8.12000000e-03
 -8.10200000e-03
 -8.09200000e-03
 -8.10100000e-03
 -8.10600000e-03
 -8.10600000e-03
 -8.10900000e-03
 -8.08400000e-03
 -8.06000000e-03
 -8.04000000e-03
 -7.96700000e-03
 -7.80400000e-03
 -7.53200000e-03
 -7.16600000e-03
 -6.90200000e-03
 -6.90100000e-03
 -7.23100000e-03
 -7.70900000e-03
 -8.07000000e-03
 -8.28000000e-03
 -8.33400000e-03
 -8.24400000e-03
 -8.14600000e-03
 -8.09700000e-03
 -8.09600000e-03
 -8.09600000e-03
 -8.07500000e-03
 -8.05900000e-03
 -8.05600000e-03
 -8.06000000e-03
 -8.06000000e-03
 -8.05600000e-03
 -8.04700000e-03
 -8.04200000e-03
 -8.04800000e-03
 -8.04700000e-03
 -8.03900000e-03
 -8.02700000e-03
 -8.01400000e-03
 -8.01400000e-03
 -8.01800000e-03
 -8.01900000e-03
 -8.01500000e-03
 -8.00700000e-03
 -8.01000000e-03
 -8.00900000e-03
 -7.99500000e-03
 -7.98100000e-03
 -7.98000000e-03
 -7.97900000e-03
 -7.96800000e-03
 -7.96300000e-03
 -7.96500000e-03
 -7.95800000e-03
 -7.96000000e-03
 -7.95200000e-03
 -7.93800000e-03
 -7.93600000e-03
 -7.92700000e-03
 -7.91800000e-03
 -7.90400000e-03
 -7.87800000e-03
 -7.84600000e-03
 -7.81200000e-03
 -7.79200000e-03
 -7.77100000e-03
 -7.73700000e-03
 -7.70900000e-03
 -7.69000000e-03
 -7.66700000e-03
 -7.63800000e-03
 -7.61600000e-03
 -7.59100000e-03
 -7.56400000e-03
 -7.54600000e-03
 -7.53500000e-03
 -7.52200000e-03
 -7.50800000e-03
 -7.50800000e-03
 -7.53100000e-03
 -7.56500000e-03
 -7.61000000e-03
 -7.64700000e-03
 -7.69200000e-03
 -7.75400000e-03
 -7.81900000e-03
 -7.87300000e-03
 -7.90200000e-03
 -7.91600000e-03
 -7.95100000e-03
 -7.97500000e-03
 -7.98900000e-03
 -7.98700000e-03
 -7.99000000e-03
 -8.00800000e-03
 -8.01400000e-03
 -8.01100000e-03
 -8.00000000e-03
 -8.00400000e-03
 -8.01100000e-03
 -8.01400000e-03
 -8.01100000e-03
 -8.00600000e-03
 -8.01300000e-03
 -8.02900000e-03
 -8.03300000e-03
 -8.03000000e-03
 -8.02600000e-03
 -8.02800000e-03
 -8.03700000e-03
 -8.03800000e-03
 -8.02900000e-03
 -8.02600000e-03
 -8.03300000e-03
 -8.03400000e-03
 -8.03500000e-03
 -8.02800000e-03
 -8.02100000e-03
 -8.00900000e-03
 -8.02000000e-03
 -8.03000000e-03
 -8.02600000e-03
 -8.01200000e-03
 -8.00900000e-03
 -8.01100000e-03
 -8.01700000e-03
 -8.02500000e-03
 -8.02900000e-03
 -8.01400000e-03
 -8.02300000e-03
 -8.03000000e-03
 -8.02000000e-03
 -8.01100000e-03
 -8.00700000e-03
 -8.00800000e-03
 -8.02000000e-03
 -8.02000000e-03
 -8.01400000e-03
 -8.02700000e-03
 -8.04000000e-03
 -8.04100000e-03
 -8.03500000e-03
 -8.03700000e-03
 -8.03900000e-03
 -8.03300000e-03
 -8.03500000e-03
 -8.01700000e-03
 -8.01600000e-03
 -8.02500000e-03
 -8.03400000e-03
 -8.03900000e-03
 -8.03300000e-03
 -8.02900000e-03
 -8.03000000e-03
 -8.02200000e-03
 -8.02800000e-03
 -8.02000000e-03
 -8.01300000e-03
 -8.01400000e-03
 -8.01100000e-03
 -8.01200000e-03
 -8.01800000e-03
 -8.01700000e-03
 -8.00900000e-03
 -8.01400000e-03
 -8.01200000e-03
 -8.00700000e-03
 -8.02600000e-03
 -8.02100000e-03
 -8.02500000e-03
 -8.02600000e-03
 -8.02600000e-03
 -8.01700000e-03
 -8.02500000e-03
 -8.03100000e-03
 -8.02500000e-03
 -8.01900000e-03
 -8.02100000e-03
 -8.02000000e-03
 -8.02300000e-03
 -8.03600000e-03
 -8.03400000e-03
 -8.00600000e-03
 -7.97000000e-03
 -7.95700000e-03
 -7.94800000e-03
 -7.95200000e-03
 -7.96500000e-03
 -7.97000000e-03
 -7.95900000e-03
 -7.92000000e-03
 -7.89600000e-03
 -7.89100000e-03
 -7.88000000e-03
 -7.88300000e-03
 -7.89700000e-03
 -7.91100000e-03
 -7.94300000e-03
 -7.96100000e-03
 -7.98800000e-03
 -8.02500000e-03
 -8.04600000e-03
 -8.05800000e-03
 -8.08200000e-03
 -8.10700000e-03
 -8.10600000e-03
 -8.10500000e-03
 -8.10600000e-03
 -8.09900000e-03
 -8.09100000e-03
 -8.09300000e-03
 -8.08900000e-03
 -8.08400000e-03
 -8.08100000e-03
 -8.07800000e-03
 -8.06800000e-03
 -8.03800000e-03
 -7.98000000e-03
 -7.88100000e-03
 -7.73600000e-03
 -7.46900000e-03
 -7.10000000e-03
 -6.85500000e-03
 -6.89300000e-03
 -7.24300000e-03
 -7.71200000e-03
 -8.04500000e-03
 -8.22600000e-03
 -8.25300000e-03
 -8.18500000e-03
 -8.10500000e-03
 -8.05900000e-03
 -8.04100000e-03
 -8.03300000e-03
 -8.03400000e-03
 -8.03100000e-03
 -8.03300000e-03
 -8.03000000e-03
 -8.02600000e-03
 -8.02700000e-03
 -8.04200000e-03
 -8.04000000e-03
 -8.02900000e-03
 -8.03000000e-03
 -8.03600000e-03
 -8.04000000e-03
 -8.03500000e-03
 -8.02000000e-03
 -8.01800000e-03
 -8.02200000e-03
 -8.01200000e-03
 -8.00600000e-03
 -7.99800000e-03
 -7.98400000e-03
 -7.97900000e-03
 -7.97100000e-03
 -7.97100000e-03
 -7.96200000e-03
 -7.94900000e-03
 -7.93800000e-03
 -7.93300000e-03
 -7.91900000e-03
 -7.91800000e-03
 -7.92000000e-03
 -7.92600000e-03
 -7.92400000e-03
 -7.91800000e-03
 -7.91100000e-03
 -7.89600000e-03
 -7.87900000e-03
 -7.86400000e-03
 -7.84000000e-03
 -7.80900000e-03
 -7.78500000e-03
 -7.76100000e-03
 -7.73000000e-03
 -7.71300000e-03
 -7.68700000e-03
 -7.65200000e-03
 -7.62100000e-03
 -7.59300000e-03
 -7.58700000e-03
 -7.57200000e-03
 -7.55200000e-03
 -7.53900000e-03
 -7.53200000e-03
 -7.54300000e-03
 -7.55000000e-03
 -7.57900000e-03
 -7.63000000e-03
 -7.68200000e-03
 -7.73200000e-03
 -7.78200000e-03
 -7.83500000e-03
 -7.88600000e-03
 -7.92400000e-03
 -7.96700000e-03
 -7.99500000e-03
 -8.02000000e-03
 -8.03000000e-03
 -8.04400000e-03
 -8.06200000e-03
 -8.06300000e-03
 -8.05800000e-03
 -8.06700000e-03
 -8.07700000e-03
 -8.07500000e-03
 -8.07300000e-03
 -8.07400000e-03
 -8.07600000e-03
 -8.08200000e-03
 -8.07800000e-03
 -8.06900000e-03
 -8.07000000e-03
 -8.07600000e-03
 -8.08000000e-03
 -8.07000000e-03
 -8.06800000e-03
 -8.08500000e-03
 -8.08500000e-03
 -8.07500000e-03
 -8.07600000e-03
 -8.06700000e-03
 -8.06500000e-03
 -8.06300000e-03
 -8.06800000e-03
 -8.06700000e-03
 -8.06100000e-03
 -8.05600000e-03
 -8.06400000e-03
 -8.05900000e-03
 -8.05600000e-03
 -8.06400000e-03
 -8.06600000e-03
 -8.05600000e-03
 -8.05600000e-03
 -8.06000000e-03
 -8.05300000e-03
 -8.05600000e-03
 -8.06600000e-03
 -8.06800000e-03
 -8.06800000e-03
 -8.06200000e-03
 -8.07000000e-03
 -8.09100000e-03
 -8.09400000e-03
 -8.09500000e-03
 -8.09300000e-03
 -8.10800000e-03
 -8.11600000e-03
 -8.12900000e-03
 -8.13400000e-03
 -8.12600000e-03
 -8.12700000e-03
 -8.12600000e-03
 -8.13000000e-03
 -8.13300000e-03
 -8.12800000e-03
 -8.13000000e-03
 -8.14300000e-03
 -8.13800000e-03
 -8.12200000e-03
 -8.10900000e-03
 -8.10300000e-03
 -8.11200000e-03
 -8.12000000e-03
 -8.11400000e-03
 -8.12500000e-03
 -8.13700000e-03
 -8.14400000e-03
 -8.14400000e-03
 -8.14800000e-03
 -8.14600000e-03
 -8.14800000e-03
 -8.15800000e-03
 -8.16000000e-03
 -8.16700000e-03
 -8.16500000e-03
 -8.16400000e-03
 -8.17200000e-03
 -8.17200000e-03
 -8.16100000e-03
 -8.16600000e-03
 -8.18000000e-03
 -8.19100000e-03
 -8.19200000e-03
 -8.18700000e-03
 -8.18600000e-03
 -8.18500000e-03
 -8.19600000e-03
 -8.19500000e-03
 -8.18900000e-03
 -8.17500000e-03
 -8.17600000e-03
 -8.19200000e-03
 -8.20100000e-03
 -8.18900000e-03
 -8.17200000e-03
 -8.15500000e-03
 -8.12700000e-03
 -8.11400000e-03
 -8.10600000e-03
 -8.09500000e-03
 -8.10200000e-03
 -8.11600000e-03
 -8.11100000e-03
 -8.06800000e-03
 -8.05400000e-03
 -8.04000000e-03
 -8.03400000e-03
 -8.04000000e-03
 -8.04600000e-03
 -8.05200000e-03
 -8.08500000e-03
 -8.10200000e-03
 -8.12000000e-03
 -8.15800000e-03
 -8.19100000e-03
 -8.21000000e-03
 -8.23200000e-03
 -8.25300000e-03
 -8.25400000e-03
 -8.25000000e-03
 -8.25000000e-03
 -8.25700000e-03
 -8.26200000e-03
 -8.24600000e-03
 -8.23400000e-03
 -8.24100000e-03
 -8.24500000e-03
 -8.24800000e-03
 -8.24500000e-03
 -8.21700000e-03
 -8.17200000e-03
 -8.09100000e-03
 -7.95100000e-03
 -7.69000000e-03
 -7.33200000e-03
 -7.06900000e-03
 -7.07400000e-03
 -7.40000000e-03
 -7.87900000e-03
 -8.23700000e-03
 -8.43700000e-03
 -8.49600000e-03
 -8.42900000e-03
 -8.33600000e-03
 -8.28500000e-03
 -8.27600000e-03
 -8.27700000e-03
 -8.26800000e-03
 -8.25800000e-03
 -8.24800000e-03
 -8.25400000e-03
 -8.26700000e-03
 -8.26800000e-03
 -8.26700000e-03
 -8.24400000e-03
 -8.25000000e-03
 -8.25400000e-03
 -8.25900000e-03
 -8.24600000e-03
 -8.24000000e-03
 -8.25800000e-03
 -8.26400000e-03
 -8.24500000e-03
 -8.23600000e-03
 -8.23200000e-03
 -8.21500000e-03
 -8.20600000e-03
 -8.20100000e-03
 -8.18800000e-03
 -8.17100000e-03
 -8.15200000e-03
 -8.14700000e-03
 -8.15200000e-03
 -8.14400000e-03
 -8.13400000e-03
 -8.13500000e-03
 -8.13000000e-03
 -8.11200000e-03
 -8.10300000e-03
 -8.09100000e-03
 -8.07200000e-03
 -8.06100000e-03
 -8.06000000e-03
 -8.03800000e-03
 -8.01000000e-03
 -7.97600000e-03
 -7.94100000e-03
 -7.91600000e-03
 -7.89500000e-03
 -7.87200000e-03
 -7.84700000e-03
 -7.82600000e-03
 -7.78600000e-03
 -7.75500000e-03
 -7.74700000e-03
 -7.73700000e-03
 -7.71700000e-03
 -7.69300000e-03
 -7.67400000e-03
 -7.66400000e-03
 -7.68300000e-03
 -7.72100000e-03
 -7.76400000e-03
 -7.80900000e-03
 -7.86600000e-03
 -7.93300000e-03
 -7.97200000e-03
 -8.03600000e-03
 -8.08000000e-03
 -8.10900000e-03
 -8.12800000e-03
 -8.15600000e-03
 -8.16600000e-03
 -8.17800000e-03
 -8.19100000e-03
 -8.19300000e-03
 -8.19800000e-03
 -8.20300000e-03
 -8.21000000e-03
 -8.21500000e-03
 -8.21600000e-03
 -8.22400000e-03
 -8.23900000e-03
 -8.24200000e-03
 -8.23300000e-03
 -8.24100000e-03
 -8.24700000e-03
 -8.25500000e-03
 -8.24800000e-03
 -8.25200000e-03
 -8.25600000e-03
 -8.27900000e-03
 -8.27100000e-03
 -8.25600000e-03
 -8.25400000e-03
 -8.26300000e-03
 -8.25600000e-03
 -8.24900000e-03
 -8.24800000e-03
 -8.24800000e-03
 -8.24300000e-03
 -8.24600000e-03
 -8.24800000e-03
 -8.25000000e-03
 -8.25500000e-03
 -8.26500000e-03
 -8.26100000e-03
 -8.26200000e-03
 -8.25000000e-03
 -8.24400000e-03
 -8.25800000e-03
 -8.27000000e-03
 -8.26700000e-03
 -8.26400000e-03
 -8.27500000e-03
 -8.28300000e-03
 -8.29200000e-03
 -8.29100000e-03
 -8.28700000e-03
 -8.28900000e-03
 -8.29200000e-03
 -8.30200000e-03
 -8.31100000e-03
 -8.31100000e-03
 -8.30100000e-03
 -8.30500000e-03
 -8.30300000e-03
 -8.31400000e-03
 -8.31400000e-03
 -8.30500000e-03
 -8.31300000e-03
 -8.32000000e-03
 -8.32500000e-03
 -8.32100000e-03
 -8.30900000e-03
 -8.30600000e-03
 -8.32000000e-03
 -8.33000000e-03
 -8.33100000e-03
 -8.33400000e-03
 -8.33700000e-03
 -8.33300000e-03
 -8.33300000e-03
 -8.33100000e-03
 -8.33700000e-03
 -8.34000000e-03
 -8.35100000e-03
 -8.35200000e-03
 -8.34400000e-03
 -8.33800000e-03
 -8.34700000e-03
 -8.34800000e-03
 -8.34900000e-03
 -8.34400000e-03
 -8.33300000e-03
 -8.34200000e-03
 -8.34400000e-03
 -8.33900000e-03
 -8.32400000e-03
 -8.32900000e-03
 -8.33800000e-03
 -8.34200000e-03
 -8.34900000e-03
 -8.34500000e-03
 -8.34100000e-03
 -8.34100000e-03
 -8.35200000e-03
 -8.35300000e-03
 -8.33800000e-03
 -8.33800000e-03
 -8.32900000e-03
 -8.32900000e-03
 -8.33200000e-03
 -8.31100000e-03
 -8.27600000e-03
 -8.25500000e-03
 -8.25000000e-03
 -8.24500000e-03
 -8.25600000e-03
 -8.24900000e-03
 -8.21400000e-03
 -8.18500000e-03
 -8.17100000e-03
 -8.16100000e-03
 -8.16400000e-03
 -8.16200000e-03
 -8.16600000e-03
 -8.19600000e-03
 -8.20700000e-03
 -8.23300000e-03
 -8.27300000e-03
 -8.30300000e-03
 -8.32300000e-03
 -8.34400000e-03
 -8.34800000e-03
 -8.34600000e-03
 -8.36100000e-03
 -8.37000000e-03
 -8.36800000e-03
 -8.35600000e-03
 -8.35600000e-03
 -8.35300000e-03
 -8.35000000e-03
 -8.34700000e-03
 -8.33900000e-03
 -8.32600000e-03
 -8.31800000e-03
 -8.29300000e-03
 -8.22600000e-03
 -8.10900000e-03
 -7.89900000e-03
 -7.55400000e-03
 -7.22700000e-03
 -7.11100000e-03
 -7.31300000e-03
 -7.77200000e-03
 -8.20200000e-03
 -8.44500000e-03
 -8.54900000e-03
 -8.50600000e-03
 -8.41800000e-03
 -8.36300000e-03
 -8.34300000e-03
 -8.32900000e-03
 -8.31800000e-03
 -8.32200000e-03
 -8.32200000e-03
 -8.32700000e-03
 -8.32000000e-03
 -8.31000000e-03
 -8.30800000e-03
 -8.30800000e-03
 -8.31000000e-03
 -8.30100000e-03
 -8.29700000e-03
 -8.29700000e-03
 -8.30200000e-03
 -8.30200000e-03
 -8.28700000e-03
 -8.28400000e-03
 -8.28000000e-03
 -8.27600000e-03
 -8.27400000e-03
 -8.26900000e-03
 -8.25300000e-03
 -8.24200000e-03
 -8.24200000e-03
 -8.23400000e-03
 -8.22000000e-03
 -8.20800000e-03
 -8.20800000e-03
 -8.21300000e-03
 -8.19500000e-03
 -8.17700000e-03
 -8.17300000e-03
 -8.15800000e-03
 -8.14700000e-03
 -8.16400000e-03
 -8.15200000e-03
 -8.12600000e-03
 -8.11400000e-03
 -8.09000000e-03
 -8.06900000e-03
 -8.04100000e-03
 -8.01500000e-03
 -7.99000000e-03
 -7.96600000e-03
 -7.94500000e-03
 -7.91700000e-03
 -7.87900000e-03
 -7.86200000e-03
 -7.85100000e-03
 -7.82800000e-03
 -7.79600000e-03
 -7.76800000e-03
 -7.76000000e-03
 -7.76400000e-03
 -7.76100000e-03
 -7.77700000e-03
 -7.82000000e-03
 -7.87000000e-03
 -7.91500000e-03
 -7.97200000e-03
 -8.03400000e-03
 -8.08700000e-03
 -8.14000000e-03
 -8.18100000e-03
 -8.20300000e-03
 -8.21800000e-03
 -8.22900000e-03
 -8.25300000e-03
 -8.26000000e-03
 -8.26200000e-03
 -8.25600000e-03
 -8.24900000e-03
 -8.26400000e-03
 -8.27400000e-03
 -8.27800000e-03
 -8.28300000e-03
 -8.27500000e-03
 -8.27300000e-03
 -8.27500000e-03
 -8.28000000e-03
 -8.28300000e-03
 -8.27000000e-03
 -8.26100000e-03
 -8.26500000e-03
 -8.27500000e-03
 -8.27100000e-03
 -8.25800000e-03
 -8.26600000e-03
 -8.27100000e-03
 -8.26800000e-03
 -8.25600000e-03
 -8.24600000e-03
 -8.24100000e-03
 -8.24000000e-03
 -8.23900000e-03
 -8.23400000e-03
 -8.22400000e-03
 -8.21000000e-03
 -8.21100000e-03
 -8.21100000e-03
 -8.20300000e-03
 -8.20100000e-03
 -8.20600000e-03
 -8.21500000e-03
 -8.22700000e-03
 -8.23100000e-03
 -8.22700000e-03
 -8.23300000e-03
 -8.24300000e-03
 -8.25700000e-03
 -8.26500000e-03
 -8.26700000e-03
 -8.26500000e-03
 -8.25900000e-03
 -8.25100000e-03
 -8.24900000e-03
 -8.25400000e-03
 -8.25300000e-03
 -8.25300000e-03
 -8.26000000e-03
 -8.27300000e-03
 -8.28100000e-03
 -8.30200000e-03
 -8.32000000e-03
 -8.31700000e-03
 -8.30500000e-03
 -8.29400000e-03
 -8.28400000e-03
 -8.26200000e-03
 -8.25100000e-03
 -8.22500000e-03
 -8.21400000e-03
 -8.23000000e-03
 -8.24300000e-03
 -8.24000000e-03
 -8.26700000e-03
 -8.29800000e-03
 -8.32300000e-03
 -8.32700000e-03
 -8.33200000e-03
 -8.34700000e-03
 -8.34400000e-03
 -8.34500000e-03
 -8.36500000e-03
 -8.36400000e-03
 -8.34200000e-03
 -8.32400000e-03
 -8.33300000e-03
 -8.34500000e-03
 -8.34100000e-03
 -8.32000000e-03
 -8.31500000e-03
 -8.31900000e-03
 -8.32200000e-03
 -8.31800000e-03
 -8.30800000e-03
 -8.29900000e-03
 -8.31200000e-03
 -8.32600000e-03
 -8.32600000e-03
 -8.33100000e-03
 -8.32600000e-03
 -8.30900000e-03
 -8.29900000e-03
 -8.27700000e-03
 -8.26200000e-03
 -8.27300000e-03
 -8.28800000e-03
 -8.30500000e-03
 -8.31100000e-03
 -8.32100000e-03
 -8.32700000e-03
 -8.34900000e-03
 -8.34800000e-03
 -8.31700000e-03
 -8.26700000e-03
 -8.24900000e-03
 -8.22000000e-03
 -8.20300000e-03
 -8.19400000e-03
 -8.18900000e-03
 -8.20900000e-03
 -8.23300000e-03
 -8.28300000e-03
 -8.33300000e-03
 -8.36800000e-03
 -8.39200000e-03
 -8.41600000e-03
 -8.43900000e-03
 -8.45600000e-03
 -8.45500000e-03
 -8.45100000e-03
 -8.45700000e-03
 -8.45900000e-03
 -8.46200000e-03
 -8.46100000e-03
 -8.45300000e-03
 -8.44800000e-03
 -8.45000000e-03
 -8.43800000e-03
 -8.41900000e-03
 -8.37600000e-03
 -8.29900000e-03
 -8.15600000e-03
 -7.92200000e-03
 -7.56300000e-03
 -7.29700000e-03
 -7.27500000e-03
 -7.59500000e-03
 -8.09500000e-03
 -8.43300000e-03
 -8.61400000e-03
 -8.71400000e-03
 -8.70500000e-03
 -8.64400000e-03
 -8.58700000e-03
 -8.55100000e-03
 -8.52900000e-03
 -8.51900000e-03
 -8.50300000e-03
 -8.48100000e-03
 -8.46300000e-03
 -8.46800000e-03
 -8.47800000e-03
 -8.46400000e-03
 -8.44400000e-03
 -8.42000000e-03
 -8.41600000e-03
 -8.42100000e-03
 -8.41300000e-03
 -8.41100000e-03
 -8.40400000e-03
 -8.41000000e-03
 -8.41500000e-03
 -8.41500000e-03
 -8.40000000e-03
 -8.39300000e-03
 -8.38800000e-03
 -8.38600000e-03
 -8.37600000e-03
 -8.36400000e-03
 -8.35300000e-03
 -8.36000000e-03
 -8.36300000e-03
 -8.34900000e-03
 -8.33400000e-03
 -8.31900000e-03
 -8.31700000e-03
 -8.32200000e-03
 -8.31500000e-03
 -8.29500000e-03
 -8.27700000e-03
 -8.25800000e-03
 -8.24100000e-03
 -8.24000000e-03
 -8.23800000e-03
 -8.21400000e-03
 -8.19000000e-03
 -8.15600000e-03
 -8.12600000e-03
 -8.09700000e-03
 -8.05900000e-03
 -8.01200000e-03
 -7.98500000e-03
 -7.96800000e-03
 -7.93600000e-03
 -7.89700000e-03
 -7.86700000e-03
 -7.84500000e-03
 -7.83800000e-03
 -7.84000000e-03
 -7.84500000e-03
 -7.87400000e-03
 -7.91600000e-03
 -7.97500000e-03
 -8.04300000e-03
 -8.09400000e-03
 -8.15300000e-03
 -8.21200000e-03
 -8.27800000e-03
 -8.31100000e-03
 -8.33200000e-03
 -8.35800000e-03
 -8.37300000e-03
 -8.38200000e-03
 -8.38800000e-03
 -8.39400000e-03
 -8.41300000e-03
 -8.42200000e-03
 -8.41200000e-03
 -8.40700000e-03
 -8.40700000e-03
 -8.42200000e-03
 -8.44100000e-03
 -8.44500000e-03
 -8.43600000e-03
 -8.42500000e-03
 -8.42400000e-03
 -8.42700000e-03
 -8.44000000e-03
 -8.44300000e-03
 -8.43700000e-03
 -8.43200000e-03
 -8.44500000e-03
 -8.44200000e-03
 -8.45600000e-03
 -8.45300000e-03
 -8.43800000e-03
 -8.44000000e-03
 -8.44500000e-03
 -8.43600000e-03
 -8.44000000e-03
 -8.44300000e-03
 -8.44500000e-03
 -8.43500000e-03
 -8.42600000e-03
 -8.42100000e-03
 -8.42100000e-03
 -8.43100000e-03
 -8.43000000e-03
 -8.43100000e-03
 -8.42600000e-03
 -8.41800000e-03
 -8.41000000e-03
 -8.40700000e-03
 -8.41100000e-03
 -8.41600000e-03
 -8.41000000e-03
 -8.40300000e-03
 -8.42000000e-03
 -8.42700000e-03
 -8.41400000e-03
 -8.41100000e-03
 -8.42000000e-03
 -8.42000000e-03
 -8.41500000e-03
 -8.41200000e-03
 -8.42100000e-03
 -8.44000000e-03
 -8.44200000e-03
 -8.44400000e-03
 -8.43500000e-03
 -8.43000000e-03
 -8.43800000e-03
 -8.44400000e-03
 -8.43700000e-03
 -8.43900000e-03
 -8.44200000e-03
 -8.45100000e-03
 -8.45000000e-03
 -8.44800000e-03
 -8.46400000e-03
 -8.46700000e-03
 -8.46400000e-03
 -8.46300000e-03
 -8.45900000e-03
 -8.46100000e-03
 -8.45600000e-03
 -8.47000000e-03
 -8.47600000e-03
 -8.46800000e-03
 -8.45800000e-03
 -8.45200000e-03
 -8.45800000e-03
 -8.46700000e-03
 -8.47500000e-03
 -8.46000000e-03
 -8.45400000e-03
 -8.46200000e-03
 -8.46000000e-03
 -8.44800000e-03
 -8.44000000e-03
 -8.43100000e-03
 -8.40300000e-03
 -8.39100000e-03
 -8.39600000e-03
 -8.40000000e-03
 -8.40000000e-03
 -8.38200000e-03
 -8.33400000e-03
 -8.31100000e-03
 -8.30100000e-03
 -8.28600000e-03
 -8.28300000e-03
 -8.28900000e-03
 -8.31500000e-03
 -8.34600000e-03
 -8.35400000e-03
 -8.37700000e-03
 -8.41500000e-03
 -8.43800000e-03
 -8.44800000e-03
 -8.47000000e-03
 -8.48800000e-03
 -8.48400000e-03
 -8.46700000e-03
 -8.44500000e-03
 -8.43800000e-03
 -8.44800000e-03
 -8.45800000e-03
 -8.46100000e-03
 -8.45700000e-03
 -8.45500000e-03
 -8.46300000e-03
 -8.44500000e-03
 -8.41600000e-03
 -8.37500000e-03
 -8.29000000e-03
 -8.11100000e-03
 -7.79800000e-03
 -7.43100000e-03
 -7.19100000e-03
 -7.26400000e-03
 -7.66000000e-03
 -8.14500000e-03
 -8.46500000e-03
 -8.64600000e-03
 -8.67300000e-03
 -8.59400000e-03
 -8.52000000e-03
 -8.47400000e-03
 -8.46100000e-03
 -8.46100000e-03
 -8.46500000e-03
 -8.47200000e-03
 -8.47300000e-03
 -8.45700000e-03
 -8.46000000e-03
 -8.46100000e-03
 -8.46500000e-03
 -8.46200000e-03
 -8.45600000e-03
 -8.45700000e-03
 -8.46000000e-03
 -8.45700000e-03
 -8.43400000e-03
 -8.42400000e-03
 -8.42800000e-03
 -8.42600000e-03
 -8.42900000e-03
 -8.42200000e-03
 -8.40900000e-03
 -8.40100000e-03
 -8.38400000e-03
 -8.37600000e-03
 -8.36900000e-03
 -8.35500000e-03
 -8.34500000e-03
 -8.33100000e-03
 -8.32100000e-03
 -8.31300000e-03
 -8.31200000e-03
 -8.30200000e-03
 -8.28900000e-03
 -8.29100000e-03
 -8.27100000e-03
 -8.25200000e-03
 -8.23400000e-03
 -8.21500000e-03
 -8.19800000e-03
 -8.17600000e-03
 -8.15600000e-03
 -8.12300000e-03
 -8.09300000e-03
 -8.07000000e-03
 -8.04200000e-03
 -8.00900000e-03
 -7.97200000e-03
 -7.94700000e-03
 -7.91600000e-03
 -7.88600000e-03
 -7.86700000e-03
 -7.85900000e-03
 -7.85200000e-03
 -7.86600000e-03
 -7.87000000e-03
 -7.88000000e-03
 -7.91900000e-03
 -7.97300000e-03
 -8.02600000e-03
 -8.08500000e-03
 -8.14200000e-03
 -8.18000000e-03
 -8.24500000e-03
 -8.29100000e-03
 -8.31500000e-03
 -8.34300000e-03
 -8.36700000e-03
 -8.38500000e-03
 -8.39700000e-03
 -8.40100000e-03
 -8.40600000e-03
 -8.41200000e-03
 -8.41500000e-03
 -8.41800000e-03
 -8.42000000e-03
 -8.40400000e-03
 -8.39600000e-03
 -8.40100000e-03
 -8.40100000e-03
 -8.39600000e-03
 -8.39600000e-03
 -8.40200000e-03
 -8.40600000e-03
 -8.40400000e-03
 -8.40400000e-03
 -8.40800000e-03
 -8.41100000e-03
 -8.40400000e-03
 -8.41100000e-03
 -8.40800000e-03
 -8.40700000e-03
 -8.41500000e-03
 -8.41500000e-03
 -8.41700000e-03
 -8.41700000e-03
 -8.40700000e-03
 -8.39900000e-03
 -8.40600000e-03
 -8.40600000e-03
 -8.39000000e-03
 -8.38600000e-03
 -8.38300000e-03
 -8.38200000e-03
 -8.39100000e-03
 -8.39700000e-03
 -8.39400000e-03
 -8.38700000e-03
 -8.39100000e-03
 -8.39000000e-03
 -8.37700000e-03
 -8.37900000e-03
 -8.38100000e-03
 -8.39300000e-03
 -8.39000000e-03
 -8.38900000e-03
 -8.38200000e-03
 -8.37400000e-03
 -8.37300000e-03
 -8.39300000e-03
 -8.39600000e-03
 -8.38300000e-03
 -8.37200000e-03
 -8.37500000e-03
 -8.38700000e-03
 -8.37600000e-03
 -8.36100000e-03
 -8.36900000e-03
 -8.37500000e-03
 -8.38500000e-03
 -8.38800000e-03
 -8.37800000e-03
 -8.38500000e-03
 -8.39300000e-03
 -8.39500000e-03
 -8.39300000e-03
 -8.39900000e-03
 -8.40600000e-03
 -8.40700000e-03
 -8.41200000e-03
 -8.41300000e-03
 -8.40600000e-03
 -8.41700000e-03
 -8.42000000e-03
 -8.42200000e-03
 -8.43000000e-03
 -8.42900000e-03
 -8.41500000e-03
 -8.41900000e-03
 -8.43600000e-03
 -8.44100000e-03
 -8.44100000e-03
 -8.43600000e-03
 -8.44100000e-03
 -8.43900000e-03
 -8.43600000e-03
 -8.42700000e-03
 -8.43700000e-03
 -8.45700000e-03
 -8.45400000e-03
 -8.44600000e-03
 -8.42900000e-03
 -8.39800000e-03
 -8.37600000e-03
 -8.36800000e-03
 -8.36000000e-03
 -8.36400000e-03
 -8.37000000e-03
 -8.37700000e-03
 -8.34800000e-03
 -8.32400000e-03
 -8.31200000e-03
 -8.29400000e-03
 -8.29000000e-03
 -8.30600000e-03
 -8.31400000e-03
 -8.33400000e-03
 -8.35500000e-03
 -8.38200000e-03
 -8.40800000e-03
 -8.43500000e-03
 -8.46000000e-03
 -8.48200000e-03
 -8.50000000e-03
 -8.51900000e-03
 -8.52000000e-03
 -8.50800000e-03
 -8.51200000e-03
 -8.50900000e-03
 -8.50200000e-03
 -8.50500000e-03
 -8.49800000e-03
 -8.48200000e-03
 -8.47300000e-03
 -8.46000000e-03
 -8.44500000e-03
 -8.41300000e-03
 -8.34600000e-03
 -8.20900000e-03
 -7.96600000e-03
 -7.59300000e-03
 -7.27600000e-03
 -7.19100000e-03
 -7.44100000e-03
 -7.91400000e-03
 -8.33700000e-03
 -8.58000000e-03
 -8.68800000e-03
 -8.64600000e-03
 -8.55300000e-03
 -8.49200000e-03
 -8.47400000e-03
 -8.47100000e-03
 -8.46500000e-03
 -8.47000000e-03
 -8.46600000e-03
 -8.45700000e-03
 -8.45800000e-03
 -8.47200000e-03
 -8.47900000e-03
 -8.47600000e-03
 -8.46600000e-03
 -8.46500000e-03
 -8.46300000e-03
 -8.46700000e-03
 -8.46000000e-03
 -8.44100000e-03
 -8.44100000e-03
 -8.44800000e-03
 -8.44700000e-03
 -8.43400000e-03
 -8.43000000e-03
 -8.41700000e-03
 -8.40700000e-03
 -8.40200000e-03
 -8.39300000e-03
 -8.39500000e-03
 -8.39200000e-03
 -8.38300000e-03
 -8.38000000e-03
 -8.37400000e-03
 -8.37000000e-03
 -8.36800000e-03
 -8.35300000e-03
 -8.34800000e-03
 -8.33500000e-03
 -8.32000000e-03
 -8.29600000e-03
 -8.27600000e-03
 -8.26000000e-03
 -8.23900000e-03
 -8.21000000e-03
 -8.17600000e-03
 -8.14300000e-03
 -8.12500000e-03
 -8.09600000e-03
 -8.06300000e-03
 -8.03200000e-03
 -8.01400000e-03
 -7.98800000e-03
 -7.95300000e-03
 -7.92400000e-03
 -7.90900000e-03
 -7.89600000e-03
 -7.88600000e-03
 -7.88000000e-03
 -7.88300000e-03
 -7.91400000e-03
 -7.95700000e-03
 -8.01700000e-03
 -8.06700000e-03
 -8.11100000e-03
 -8.16000000e-03
 -8.22300000e-03
 -8.27900000e-03
 -8.31600000e-03
 -8.34400000e-03
 -8.36800000e-03
 -8.39300000e-03
 -8.40300000e-03
 -8.40900000e-03
 -8.41100000e-03
 -8.40900000e-03
 -8.42800000e-03
 -8.44400000e-03
 -8.44000000e-03
 -8.44100000e-03
 -8.44200000e-03
 -8.45100000e-03
 -8.46000000e-03
 -8.45800000e-03
 -8.45100000e-03
 -8.45000000e-03
 -8.44500000e-03
 -8.44300000e-03
 -8.45400000e-03
 -8.45200000e-03
 -8.44500000e-03
 -8.44400000e-03
 -8.43700000e-03
 -8.42600000e-03
 -8.41800000e-03
 -8.42100000e-03
 -8.41600000e-03
 -8.41500000e-03
 -8.41200000e-03
 -8.41100000e-03
 -8.41100000e-03
 -8.40300000e-03
 -8.40200000e-03
 -8.40100000e-03
 -8.41000000e-03
 -8.40700000e-03
 -8.40300000e-03
 -8.40400000e-03
 -8.40200000e-03
 -8.38900000e-03
 -8.38600000e-03
 -8.38900000e-03
 -8.39800000e-03
 -8.40400000e-03
 -8.39600000e-03
 -8.39500000e-03
 -8.39800000e-03
 -8.41100000e-03
 -8.41100000e-03
 -8.41400000e-03
 -8.42100000e-03
 -8.43000000e-03
 -8.43600000e-03
 -8.43600000e-03
 -8.43700000e-03
 -8.43300000e-03
 -8.43400000e-03
 -8.43800000e-03
 -8.45200000e-03
 -8.44700000e-03
 -8.44200000e-03
 -8.44900000e-03
 -8.44600000e-03
 -8.43900000e-03
 -8.43500000e-03
 -8.43300000e-03
 -8.43300000e-03
 -8.43600000e-03
 -8.42900000e-03
 -8.42600000e-03
 -8.43100000e-03
 -8.44100000e-03
 -8.44400000e-03
 -8.43900000e-03
 -8.42800000e-03
 -8.43100000e-03
 -8.43900000e-03
 -8.43100000e-03
 -8.43500000e-03
 -8.43900000e-03
 -8.42900000e-03
 -8.43000000e-03
 -8.43900000e-03
 -8.43900000e-03
 -8.44100000e-03
 -8.43900000e-03
 -8.44000000e-03
 -8.44600000e-03
 -8.43800000e-03
 -8.44800000e-03
 -8.44900000e-03
 -8.45200000e-03
 -8.44800000e-03
 -8.43900000e-03
 -8.43200000e-03
 -8.41900000e-03
 -8.40300000e-03
 -8.38700000e-03
 -8.38000000e-03
 -8.37700000e-03
 -8.37900000e-03
 -8.39000000e-03
 -8.37000000e-03
 -8.33800000e-03
 -8.31600000e-03
 -8.30300000e-03
 -8.30000000e-03
 -8.29400000e-03
 -8.29400000e-03
 -8.31700000e-03
 -8.34600000e-03
 -8.36000000e-03
 -8.38300000e-03
 -8.42000000e-03
 -8.45200000e-03
 -8.47100000e-03
 -8.50300000e-03
 -8.51200000e-03
 -8.50400000e-03
 -8.50000000e-03
 -8.50200000e-03
 -8.51400000e-03
 -8.51800000e-03
 -8.51800000e-03
 -8.50300000e-03
 -8.49800000e-03
 -8.50200000e-03
 -8.50000000e-03
 -8.47600000e-03
 -8.44600000e-03
 -8.41100000e-03
 -8.30400000e-03
 -8.11500000e-03
 -7.79100000e-03
 -7.42800000e-03
 -7.24500000e-03
 -7.37600000e-03
 -7.79700000e-03
 -8.25300000e-03
 -8.53100000e-03
 -8.71800000e-03
 -8.75100000e-03
 -8.66900000e-03
 -8.59100000e-03
 -8.55000000e-03
 -8.53500000e-03
 -8.53300000e-03
 -8.54000000e-03
 -8.53800000e-03
 -8.53000000e-03
 -8.53500000e-03
 -8.54900000e-03
 -8.55400000e-03
 -8.54100000e-03
 -8.53100000e-03
 -8.52900000e-03
 -8.52700000e-03
 -8.53300000e-03
 -8.52800000e-03
 -8.51800000e-03
 -8.50900000e-03
 -8.50800000e-03
 -8.49500000e-03
 -8.48900000e-03
 -8.48800000e-03
 -8.48900000e-03
 -8.49300000e-03
 -8.48300000e-03
 -8.47600000e-03
 -8.46800000e-03
 -8.47300000e-03
 -8.48300000e-03
 -8.48100000e-03
 -8.47000000e-03
 -8.46200000e-03
 -8.46200000e-03
 -8.46800000e-03
 -8.46900000e-03
 -8.46800000e-03
 -8.45000000e-03
 -8.41900000e-03
 -8.40700000e-03
 -8.39400000e-03
 -8.36900000e-03
 -8.34500000e-03
 -8.32400000e-03
 -8.29300000e-03
 -8.25500000e-03
 -8.23100000e-03
 -8.20400000e-03
 -8.18300000e-03
 -8.16900000e-03
 -8.15400000e-03
 -8.13200000e-03
 -8.10500000e-03
 -8.08900000e-03
 -8.08000000e-03
 -8.07600000e-03
 -8.06400000e-03
 -8.04700000e-03
 -8.07500000e-03
 -8.12000000e-03
 -8.17100000e-03
 -8.21600000e-03
 -8.26200000e-03
 -8.32600000e-03
 -8.38900000e-03
 -8.44500000e-03
 -8.48700000e-03
 -8.51400000e-03
 -8.54100000e-03
 -8.57000000e-03
 -8.58300000e-03
 -8.59100000e-03
 -8.59400000e-03
 -8.60600000e-03
 -8.60800000e-03
 -8.60400000e-03
 -8.59800000e-03
 -8.59400000e-03
 -8.58800000e-03
 -8.58900000e-03
 -8.59800000e-03
 -8.60500000e-03
 -8.60500000e-03
 -8.59900000e-03
 -8.60200000e-03
 -8.61000000e-03
 -8.60800000e-03
 -8.61100000e-03
 -8.61100000e-03
 -8.61700000e-03
 -8.62000000e-03
 -8.59800000e-03
 -8.59600000e-03
 -8.60800000e-03
 -8.61600000e-03
 -8.60300000e-03
 -8.58500000e-03
 -8.57700000e-03
 -8.57500000e-03
 -8.58000000e-03
 -8.57300000e-03
 -8.56200000e-03
 -8.56800000e-03
 -8.57700000e-03
 -8.57900000e-03
 -8.58300000e-03
 -8.57500000e-03
 -8.56700000e-03
 -8.56100000e-03
 -8.57000000e-03
 -8.57900000e-03
 -8.58000000e-03
 -8.59300000e-03
 -8.58900000e-03
 -8.58600000e-03
 -8.58300000e-03
 -8.59200000e-03
 -8.59100000e-03
 -8.59100000e-03
 -8.59900000e-03
 -8.61400000e-03
 -8.61400000e-03
 -8.60100000e-03
 -8.59800000e-03
 -8.60200000e-03
 -8.60700000e-03
 -8.60200000e-03
 -8.59500000e-03
 -8.59500000e-03
 -8.60600000e-03
 -8.61200000e-03
 -8.60200000e-03
 -8.59900000e-03
 -8.60000000e-03
 -8.60100000e-03
 -8.59600000e-03
 -8.59800000e-03
 -8.60900000e-03
 -8.61100000e-03
 -8.60500000e-03
 -8.60100000e-03
 -8.59500000e-03
 -8.58000000e-03
 -8.58400000e-03
 -8.58200000e-03
 -8.58300000e-03
 -8.59300000e-03
 -8.58500000e-03
 -8.58000000e-03
 -8.58400000e-03
 -8.56100000e-03
 -8.53400000e-03
 -8.52500000e-03
 -8.51600000e-03
 -8.52700000e-03
 -8.52300000e-03
 -8.51000000e-03
 -8.50600000e-03
 -8.48300000e-03
 -8.45800000e-03
 -8.44300000e-03
 -8.41800000e-03
 -8.41100000e-03
 -8.42600000e-03
 -8.44500000e-03
 -8.47600000e-03
 -8.49700000e-03
 -8.51500000e-03
 -8.56900000e-03
 -8.59800000e-03
 -8.61200000e-03
 -8.62700000e-03
 -8.63800000e-03
 -8.63600000e-03
 -8.62600000e-03
 -8.62700000e-03
 -8.61800000e-03
 -8.60900000e-03
 -8.61500000e-03
 -8.61500000e-03
 -8.60700000e-03
 -8.60600000e-03
 -8.60700000e-03
 -8.60000000e-03
 -8.56400000e-03
 -8.51700000e-03
 -8.40600000e-03
 -8.22500000e-03
 -7.91800000e-03
 -7.58300000e-03
 -7.40900000e-03
 -7.53500000e-03
 -7.92800000e-03
 -8.36200000e-03
 -8.60100000e-03
 -8.72400000e-03
 -8.78000000e-03
 -8.74400000e-03
 -8.67800000e-03
 -8.63000000e-03
 -8.61300000e-03
 -8.59300000e-03
 -8.56500000e-03
 -8.55400000e-03
 -8.54900000e-03
 -8.53200000e-03
 -8.52500000e-03
 -8.52100000e-03
 -8.52100000e-03
 -8.52000000e-03
 -8.51500000e-03
 -8.50200000e-03
 -8.49200000e-03
 -8.48400000e-03
 -8.48400000e-03
 -8.48400000e-03
 -8.47800000e-03
 -8.46800000e-03
 -8.44700000e-03
 -8.44200000e-03
 -8.43700000e-03
 -8.42700000e-03
 -8.41700000e-03
 -8.40100000e-03
 -8.40600000e-03
 -8.40500000e-03
 -8.37700000e-03
 -8.37200000e-03
 -8.37200000e-03
 -8.36100000e-03
 -8.34800000e-03
 -8.33600000e-03
 -8.32700000e-03
 -8.31400000e-03
 -8.30800000e-03
 -8.29700000e-03
 -8.27400000e-03
 -8.26800000e-03
 -8.26900000e-03
 -8.26300000e-03
 -8.24300000e-03
 -8.21800000e-03
 -8.19000000e-03
 -8.16600000e-03
 -8.14200000e-03
 -8.11200000e-03
 -8.08700000e-03
 -8.04600000e-03
 -8.01200000e-03
 -8.00100000e-03
 -7.98800000e-03
 -7.95700000e-03
 -7.92900000e-03
 -7.92800000e-03
 -7.93200000e-03
 -7.93900000e-03
 -7.95700000e-03
 -7.98600000e-03
 -8.03200000e-03
 -8.08400000e-03
 -8.13700000e-03
 -8.19100000e-03
 -8.23600000e-03
 -8.27600000e-03
 -8.33500000e-03
 -8.37800000e-03
 -8.39000000e-03
 -8.39700000e-03
 -8.40900000e-03
 -8.41500000e-03
 -8.42600000e-03
 -8.43100000e-03
 -8.43400000e-03
 -8.44100000e-03
 -8.43900000e-03
 -8.44100000e-03
 -8.44000000e-03
 -8.44300000e-03
 -8.46200000e-03
 -8.47000000e-03
 -8.45300000e-03
 -8.45400000e-03
 -8.45300000e-03
 -8.45400000e-03
 -8.44900000e-03
 -8.45200000e-03
 -8.43500000e-03
 -8.42400000e-03
 -8.42800000e-03
 -8.43500000e-03
 -8.44200000e-03
 -8.44700000e-03
 -8.44600000e-03
 -8.44400000e-03
 -8.44300000e-03
 -8.42900000e-03
 -8.41500000e-03
 -8.41300000e-03
 -8.41500000e-03
 -8.40600000e-03
 -8.40200000e-03
 -8.40000000e-03
 -8.38900000e-03
 -8.39300000e-03
 -8.39800000e-03
 -8.39500000e-03
 -8.39800000e-03
 -8.40200000e-03
 -8.41000000e-03
 -8.42500000e-03
 -8.42500000e-03
 -8.43000000e-03
 -8.43300000e-03
 -8.43000000e-03
 -8.43900000e-03
 -8.45800000e-03
 -8.47000000e-03
 -8.47000000e-03
 -8.46700000e-03
 -8.47700000e-03
 -8.48300000e-03
 -8.47900000e-03
 -8.47900000e-03
 -8.47800000e-03
 -8.46300000e-03
 -8.45200000e-03
 -8.43800000e-03
 -8.42900000e-03
 -8.42300000e-03
 -8.43000000e-03
 -8.43100000e-03
 -8.42900000e-03
 -8.43000000e-03
 -8.43400000e-03
 -8.42900000e-03
 -8.42500000e-03
 -8.41800000e-03
 -8.40500000e-03
 -8.41000000e-03
 -8.43900000e-03
 -8.45700000e-03
 -8.46600000e-03
 -8.45600000e-03
 -8.46700000e-03
 -8.47400000e-03
 -8.47500000e-03
 -8.47400000e-03
 -8.47100000e-03
 -8.48800000e-03
 -8.49700000e-03
 -8.49500000e-03
 -8.48700000e-03
 -8.47600000e-03
 -8.46000000e-03
 -8.43700000e-03
 -8.41100000e-03
 -8.40000000e-03
 -8.39800000e-03
 -8.40200000e-03
 -8.40000000e-03
 -8.37100000e-03
 -8.34300000e-03
 -8.33200000e-03
 -8.32800000e-03
 -8.32900000e-03
 -8.33700000e-03
 -8.34100000e-03
 -8.36700000e-03
 -8.40000000e-03
 -8.42900000e-03
 -8.45700000e-03
 -8.49100000e-03
 -8.51000000e-03
 -8.52300000e-03
 -8.55300000e-03
 -8.56400000e-03
 -8.56300000e-03
 -8.55900000e-03
 -8.56500000e-03
 -8.57500000e-03
 -8.58300000e-03
 -8.57600000e-03
 -8.57300000e-03
 -8.57800000e-03
 -8.57600000e-03
 -8.56100000e-03
 -8.55000000e-03
 -8.51700000e-03
 -8.44700000e-03
 -8.30700000e-03
 -8.07500000e-03
 -7.70700000e-03
 -7.40100000e-03
 -7.32400000e-03
 -7.56900000e-03
 -8.03800000e-03
 -8.44400000e-03
 -8.68500000e-03
 -8.79700000e-03
 -8.75900000e-03
 -8.66800000e-03
 -8.61900000e-03
 -8.60600000e-03
 -8.58400000e-03
 -8.58300000e-03
 -8.59200000e-03
 -8.59200000e-03
 -8.58400000e-03
 -8.58300000e-03
 -8.58500000e-03
 -8.58300000e-03
 -8.56800000e-03
 -8.55800000e-03
 -8.56100000e-03
 -8.55100000e-03
 -8.55900000e-03
 -8.55800000e-03
 -8.55000000e-03
 -8.53900000e-03
 -8.52600000e-03
 -8.51600000e-03
 -8.50800000e-03
 -8.50800000e-03
 -8.51100000e-03
 -8.50400000e-03
 -8.49400000e-03
 -8.49900000e-03
 -8.48700000e-03
 -8.47100000e-03
 -8.46700000e-03
 -8.46000000e-03
 -8.44900000e-03
 -8.43600000e-03
 -8.44400000e-03
 -8.44800000e-03
 -8.43400000e-03
 -8.41000000e-03
 -8.39600000e-03
 -8.38200000e-03
 -8.36500000e-03
 -8.36000000e-03
 -8.34600000e-03
 -8.31800000e-03
 -8.30000000e-03
 -8.26800000e-03
 -8.23100000e-03
 -8.19900000e-03
 -8.16400000e-03
 -8.13100000e-03
 -8.09400000e-03
 -8.07000000e-03
 -8.04300000e-03
 -8.02300000e-03
 -8.00600000e-03
 -7.99700000e-03
 -7.98700000e-03
 -7.96400000e-03
 -7.96200000e-03
 -7.99100000e-03
 -8.03800000e-03
 -8.08900000e-03
 -8.14400000e-03
 -8.20000000e-03
 -8.25100000e-03
 -8.30900000e-03
 -8.36100000e-03
 -8.39300000e-03
 -8.41900000e-03
 -8.43700000e-03
 -8.46000000e-03
 -8.46300000e-03
 -8.46200000e-03
 -8.47000000e-03
 -8.46900000e-03
 -8.47700000e-03
 -8.48400000e-03
 -8.48600000e-03
 -8.49300000e-03
 -8.49400000e-03
 -8.49100000e-03
 -8.49600000e-03
 -8.49600000e-03
 -8.47600000e-03
 -8.48900000e-03
 -8.50600000e-03
 -8.49800000e-03
 -8.50500000e-03
 -8.50900000e-03
 -8.51400000e-03
 -8.52100000e-03
 -8.51800000e-03
 -8.50300000e-03
 -8.50100000e-03
 -8.50100000e-03
 -8.51000000e-03
 -8.51300000e-03
 -8.50400000e-03
 -8.49500000e-03
 -8.48800000e-03
 -8.48500000e-03
 -8.47800000e-03
 -8.46500000e-03
 -8.45700000e-03
 -8.44500000e-03
 -8.44100000e-03
 -8.43200000e-03
 -8.43000000e-03
 -8.42500000e-03
 -8.42400000e-03
 -8.42700000e-03
 -8.42500000e-03
 -8.41600000e-03
 -8.40900000e-03
 -8.41100000e-03
 -8.42200000e-03
 -8.43100000e-03
 -8.43700000e-03
 -8.44300000e-03
 -8.44500000e-03
 -8.45000000e-03
 -8.45100000e-03
 -8.44500000e-03
 -8.44100000e-03
 -8.45100000e-03
 -8.46000000e-03
 -8.46400000e-03
 -8.46200000e-03
 -8.44700000e-03
 -8.44600000e-03
 -8.45700000e-03
 -8.45800000e-03
 -8.45800000e-03
 -8.44700000e-03
 -8.44300000e-03
 -8.43900000e-03
 -8.43400000e-03
 -8.42200000e-03
 -8.42400000e-03
 -8.43100000e-03
 -8.43400000e-03
 -8.44200000e-03
 -8.43300000e-03
 -8.42700000e-03
 -8.43200000e-03
 -8.43800000e-03
 -8.44500000e-03
 -8.43700000e-03
 -8.43300000e-03
 -8.43400000e-03
 -8.43300000e-03
 -8.43500000e-03
 -8.42700000e-03
 -8.41500000e-03
 -8.39700000e-03
 -8.37000000e-03
 -8.35600000e-03
 -8.36000000e-03
 -8.36600000e-03
 -8.38100000e-03
 -8.37700000e-03
 -8.33400000e-03
 -8.31300000e-03
 -8.30200000e-03
 -8.28100000e-03
 -8.27800000e-03
 -8.28400000e-03
 -8.29300000e-03
 -8.33100000e-03
 -8.35700000e-03
 -8.37000000e-03
 -8.41200000e-03
 -8.45400000e-03
 -8.46600000e-03
 -8.48400000e-03
 -8.50200000e-03
 -8.50200000e-03
 -8.49700000e-03
 -8.49500000e-03
 -8.50200000e-03
 -8.50300000e-03
 -8.50700000e-03
 -8.50500000e-03
 -8.50300000e-03
 -8.49800000e-03
 -8.50500000e-03
 -8.48700000e-03
 -8.46100000e-03
 -8.43200000e-03
 -8.35300000e-03
 -8.19900000e-03
 -7.93800000e-03
 -7.57000000e-03
 -7.28800000e-03
 -7.27000000e-03
 -7.57700000e-03
 -8.06000000e-03
 -8.43200000e-03
 -8.65300000e-03
 -8.72400000e-03
 -8.65800000e-03
 -8.57700000e-03
 -8.53200000e-03
 -8.51000000e-03
 -8.50700000e-03
 -8.49700000e-03
 -8.49400000e-03
 -8.49400000e-03
 -8.49700000e-03
 -8.49900000e-03
 -8.49700000e-03
 -8.50500000e-03
 -8.50200000e-03
 -8.49200000e-03
 -8.48400000e-03
 -8.48200000e-03
 -8.46600000e-03
 -8.44700000e-03
 -8.44300000e-03
 -8.44000000e-03
 -8.44900000e-03
 -8.45000000e-03
 -8.44400000e-03
 -8.43900000e-03
 -8.43800000e-03
 -8.43900000e-03
 -8.44300000e-03
 -8.42700000e-03
 -8.41400000e-03
 -8.40500000e-03
 -8.40000000e-03
 -8.39300000e-03
 -8.40300000e-03
 -8.39000000e-03
 -8.37000000e-03
 -8.36200000e-03
 -8.35200000e-03
 -8.34600000e-03
 -8.33600000e-03
 -8.32800000e-03
 -8.32600000e-03
 -8.30800000e-03
 -8.26600000e-03
 -8.25100000e-03
 -8.24100000e-03
 -8.21100000e-03
 -8.18200000e-03
 -8.14300000e-03
 -8.10200000e-03
 -8.06700000e-03
 -8.04100000e-03
 -8.01600000e-03
 -7.99100000e-03
 -7.97000000e-03
 -7.95700000e-03
 -7.94300000e-03
 -7.93000000e-03
 -7.93400000e-03
 -7.94900000e-03
 -7.97800000e-03
 -8.01900000e-03
 -8.07500000e-03
 -8.12200000e-03
 -8.18400000e-03
 -8.23900000e-03
 -8.28100000e-03
 -8.32800000e-03
 -8.35500000e-03
 -8.37100000e-03
 -8.38900000e-03
 -8.40100000e-03
 -8.41500000e-03
 -8.41200000e-03
 -8.41000000e-03
 -8.42300000e-03
 -8.43900000e-03
 -8.44300000e-03
 -8.44000000e-03
 -8.45400000e-03
 -8.46500000e-03
 -8.47800000e-03
 -8.48800000e-03
 -8.48600000e-03
 -8.47700000e-03
 -8.47600000e-03
 -8.47600000e-03
 -8.47900000e-03
 -8.46700000e-03
 -8.46700000e-03
 -8.47400000e-03
 -8.47700000e-03
 -8.47300000e-03
 -8.46900000e-03
 -8.45700000e-03
 -8.45200000e-03
 -8.45300000e-03
 -8.44700000e-03
 -8.44000000e-03
 -8.43500000e-03
 -8.43800000e-03
 -8.44500000e-03
 -8.44500000e-03
 -8.43200000e-03
 -8.43000000e-03
 -8.42900000e-03
 -8.43000000e-03
 -8.45100000e-03
 -8.45000000e-03
 -8.43600000e-03
 -8.43200000e-03
 -8.42800000e-03
 -8.42600000e-03
 -8.43300000e-03
 -8.43400000e-03
 -8.42900000e-03
 -8.43500000e-03
 -8.45600000e-03
 -8.45300000e-03
 -8.45000000e-03
 -8.46200000e-03
 -8.46000000e-03
 -8.44600000e-03
 -8.44800000e-03
 -8.44200000e-03
 -8.43600000e-03
 -8.43800000e-03
 -8.44700000e-03
 -8.45800000e-03
 -8.46400000e-03
 -8.45700000e-03
 -8.44700000e-03
 -8.44800000e-03
 -8.44000000e-03
 -8.43200000e-03
 -8.44300000e-03
 -8.46100000e-03
 -8.47100000e-03
 -8.45800000e-03
 -8.45800000e-03
 -8.47000000e-03
 -8.46600000e-03
 -8.46700000e-03
 -8.46100000e-03
 -8.46000000e-03
 -8.46200000e-03
 -8.47200000e-03
 -8.47700000e-03
 -8.47000000e-03
 -8.46600000e-03
 -8.45200000e-03
 -8.42200000e-03
 -8.40500000e-03
 -8.39300000e-03
 -8.38500000e-03
 -8.38700000e-03
 -8.40200000e-03
 -8.39400000e-03
 -8.35300000e-03
 -8.32800000e-03
 -8.30400000e-03
 -8.28500000e-03
 -8.28200000e-03
 -8.29300000e-03
 -8.31200000e-03
 -8.34500000e-03
 -8.36600000e-03
 -8.38400000e-03
 -8.42300000e-03
 -8.44900000e-03
 -8.46800000e-03
 -8.48700000e-03
 -8.49700000e-03
 -8.49400000e-03
 -8.49800000e-03
 -8.50100000e-03
 -8.51500000e-03
 -8.51600000e-03
 -8.51000000e-03
 -8.50600000e-03
 -8.51300000e-03
 -8.51300000e-03
 -8.51700000e-03
 -8.50600000e-03
 -8.49800000e-03
 -8.46200000e-03
 -8.38600000e-03
 -8.24300000e-03
 -7.97800000e-03
 -7.61400000e-03
 -7.35400000e-03
 -7.35000000e-03
 -7.65400000e-03
 -8.12300000e-03
 -8.49500000e-03
 -8.70800000e-03
 -8.77000000e-03
 -8.69200000e-03
 -8.59200000e-03
 -8.52800000e-03
 -8.52100000e-03
 -8.52600000e-03
 -8.52800000e-03
 -8.52700000e-03
 -8.51700000e-03
 -8.51800000e-03
 -8.51600000e-03
 -8.52200000e-03
 -8.50800000e-03
 -8.50500000e-03
 -8.50000000e-03
 -8.51100000e-03
 -8.51900000e-03
 -8.50400000e-03
 -8.49300000e-03
 -8.49400000e-03
 -8.49500000e-03
 -8.49700000e-03
 -8.49100000e-03
 -8.48400000e-03
 -8.47800000e-03
 -8.47000000e-03
 -8.46400000e-03
 -8.44700000e-03
 -8.43200000e-03
 -8.41100000e-03
 -8.40400000e-03
 -8.40600000e-03
 -8.41300000e-03
 -8.41400000e-03
 -8.42000000e-03
 -8.44100000e-03
 -8.45700000e-03
 -8.45800000e-03
 -8.45800000e-03
 -8.45300000e-03
 -8.44300000e-03
 -8.41900000e-03
 -8.39500000e-03
 -8.36600000e-03
 -8.33500000e-03
 -8.31200000e-03
 -8.28800000e-03
 -8.26800000e-03
 -8.23700000e-03
 -8.20800000e-03
 -8.19600000e-03
 -8.17900000e-03
 -8.16000000e-03
 -8.13100000e-03
 -8.10300000e-03
 -8.08900000e-03
 -8.07800000e-03
 -8.06800000e-03
 -8.06200000e-03
 -8.08600000e-03
 -8.12800000e-03
 -8.17500000e-03
 -8.23500000e-03
 -8.29800000e-03
 -8.35200000e-03
 -8.41300000e-03
 -8.46600000e-03
 -8.50800000e-03
 -8.55000000e-03
 -8.58500000e-03
 -8.61800000e-03
 -8.64000000e-03
 -8.64900000e-03
 -8.65000000e-03
 -8.66600000e-03
 -8.68700000e-03
 -8.68400000e-03
 -8.67300000e-03
 -8.66900000e-03
 -8.67600000e-03
 -8.68400000e-03
 -8.67400000e-03
 -8.66900000e-03
 -8.65100000e-03
 -8.65000000e-03
 -8.66600000e-03
 -8.67300000e-03
 -8.67100000e-03
 -8.65900000e-03
 -8.66200000e-03
 -8.67800000e-03
 -8.67700000e-03
 -8.67300000e-03
 -8.67100000e-03
 -8.66500000e-03
 -8.66700000e-03
 -8.67300000e-03
 -8.66400000e-03
 -8.65500000e-03
 -8.66300000e-03
 -8.67800000e-03
 -8.68500000e-03
 -8.68500000e-03
 -8.66600000e-03
 -8.66800000e-03
 -8.68800000e-03
 -8.69700000e-03
 -8.68700000e-03
 -8.68600000e-03
 -8.68500000e-03
 -8.68300000e-03
 -8.67700000e-03
 -8.68900000e-03
 -8.69500000e-03
 -8.70600000e-03
 -8.71600000e-03
 -8.72500000e-03
 -8.73800000e-03
 -8.74200000e-03
 -8.74300000e-03
 -8.75400000e-03
 -8.74400000e-03
 -8.73000000e-03
 -8.72900000e-03
 -8.73100000e-03
 -8.74200000e-03
 -8.73900000e-03
 -8.74100000e-03
 -8.74700000e-03
 -8.75900000e-03
 -8.76400000e-03
 -8.77700000e-03
 -8.78400000e-03
 -8.78200000e-03
 -8.78200000e-03
 -8.78300000e-03
 -8.79100000e-03
 -8.78800000e-03
 -8.77600000e-03
 -8.77900000e-03
 -8.78200000e-03
 -8.79900000e-03
 -8.79500000e-03
 -8.79100000e-03
 -8.78900000e-03
 -8.77600000e-03
 -8.76300000e-03
 -8.73700000e-03
 -8.72900000e-03
 -8.74400000e-03
 -8.75300000e-03
 -8.74000000e-03
 -8.70700000e-03
 -8.68100000e-03
 -8.66100000e-03
 -8.64200000e-03
 -8.63900000e-03
 -8.65200000e-03
 -8.66400000e-03
 -8.69300000e-03
 -8.71800000e-03
 -8.73800000e-03
 -8.77200000e-03
 -8.80600000e-03
 -8.81300000e-03
 -8.82600000e-03
 -8.85000000e-03
 -8.85800000e-03
 -8.84400000e-03
 -8.84900000e-03
 -8.86200000e-03
 -8.84600000e-03
 -8.83300000e-03
 -8.83600000e-03
 -8.84000000e-03
 -8.83800000e-03
 -8.84100000e-03
 -8.83500000e-03
 -8.82000000e-03
 -8.78900000e-03
 -8.73900000e-03
 -8.63200000e-03
 -8.43000000e-03
 -8.09400000e-03
 -7.80000000e-03
 -7.69000000e-03
 -7.87900000e-03
 -8.32000000e-03
 -8.71000000e-03
 -8.91100000e-03
 -9.01700000e-03
 -9.05700000e-03
 -9.00100000e-03
 -8.92500000e-03
 -8.88900000e-03
 -8.88100000e-03
 -8.86000000e-03
 -8.83000000e-03
 -8.82400000e-03
 -8.82400000e-03
 -8.81800000e-03
 -8.82400000e-03
 -8.81900000e-03
 -8.80200000e-03
 -8.80200000e-03
 -8.80100000e-03
 -8.79400000e-03
 -8.79000000e-03
 -8.78600000e-03
 -8.77800000e-03
 -8.76700000e-03
 -8.76500000e-03
 -8.74900000e-03
 -8.74100000e-03
 -8.74000000e-03
 -8.75400000e-03
 -8.74500000e-03
 -8.73800000e-03
 -8.73600000e-03
 -8.73000000e-03
 -8.73200000e-03
 -8.73100000e-03
 -8.71500000e-03
 -8.69800000e-03
 -8.69400000e-03
 -8.69000000e-03
 -8.68600000e-03
 -8.67900000e-03
 -8.66100000e-03
 -8.65400000e-03
 -8.64200000e-03
 -8.62400000e-03
 -8.59900000e-03
 -8.58200000e-03
 -8.56800000e-03
 -8.55300000e-03
 -8.53100000e-03
 -8.50300000e-03
 -8.46900000e-03
 -8.43500000e-03
 -8.40800000e-03
 -8.37700000e-03
 -8.34600000e-03
 -8.32300000e-03
 -8.30500000e-03
 -8.29900000e-03
 -8.29700000e-03
 -8.27900000e-03
 -8.25900000e-03
 -8.26200000e-03
 -8.29400000e-03
 -8.33300000e-03
 -8.38100000e-03
 -8.44200000e-03
 -8.50200000e-03
 -8.56000000e-03
 -8.61000000e-03
 -8.64600000e-03
 -8.68400000e-03
 -8.70200000e-03
 -8.72000000e-03
 -8.73000000e-03
 -8.74000000e-03
 -8.75500000e-03
 -8.76500000e-03
 -8.76200000e-03
 -8.76400000e-03
 -8.75500000e-03
 -8.75200000e-03
 -8.75000000e-03
 -8.74600000e-03
 -8.75300000e-03
 -8.74800000e-03
 -8.73700000e-03
 -8.75100000e-03
 -8.76000000e-03
 -8.76900000e-03
 -8.77300000e-03
 -8.77000000e-03
 -8.76400000e-03
 -8.76200000e-03
 -8.76200000e-03
 -8.74700000e-03
 -8.75000000e-03
 -8.76100000e-03
 -8.76600000e-03
 -8.75500000e-03
 -8.73700000e-03
 -8.73900000e-03
 -8.73600000e-03
 -8.74200000e-03
 -8.75900000e-03
 -8.75900000e-03
 -8.76000000e-03
 -8.76200000e-03
 -8.77500000e-03
 -8.78500000e-03
 -8.78900000e-03
 -8.78600000e-03
 -8.78100000e-03
 -8.79000000e-03
 -8.80200000e-03
 -8.79300000e-03
 -8.79000000e-03
 -8.78600000e-03
 -8.78800000e-03
 -8.79200000e-03
 -8.79200000e-03
 -8.79000000e-03
 -8.79400000e-03
 -8.78900000e-03
 -8.78400000e-03
 -8.77600000e-03
 -8.77500000e-03
 -8.77200000e-03
 -8.76600000e-03
 -8.77000000e-03
 -8.76600000e-03
 -8.75700000e-03
 -8.76600000e-03
 -8.77400000e-03
 -8.77200000e-03
 -8.76200000e-03
 -8.75600000e-03
 -8.76300000e-03
 -8.77500000e-03
 -8.78200000e-03
 -8.78600000e-03
 -8.78700000e-03
 -8.77000000e-03
 -8.76100000e-03
 -8.74300000e-03
 -8.72300000e-03
 -8.72000000e-03
 -8.72600000e-03
 -8.72900000e-03
 -8.71400000e-03
 -8.67400000e-03
 -8.65200000e-03
 -8.65100000e-03
 -8.65100000e-03
 -8.65300000e-03
 -8.65000000e-03
 -8.65300000e-03
 -8.69800000e-03
 -8.72600000e-03
 -8.75500000e-03
 -8.79300000e-03
 -8.80700000e-03
 -8.82600000e-03
 -8.83800000e-03
 -8.85000000e-03
 -8.84800000e-03
 -8.82500000e-03
 -8.81500000e-03
 -8.83200000e-03
 -8.83900000e-03
 -8.83000000e-03
 -8.81600000e-03
 -8.81800000e-03
 -8.81600000e-03
 -8.81500000e-03
 -8.80800000e-03
 -8.77100000e-03
 -8.72000000e-03
 -8.64200000e-03
 -8.50600000e-03
 -8.23000000e-03
 -7.87100000e-03
 -7.63800000e-03
 -7.67900000e-03
 -8.02600000e-03
 -8.48600000e-03
 -8.78100000e-03
 -8.93200000e-03
 -9.00500000e-03
 -8.97400000e-03
 -8.89800000e-03
 -8.83800000e-03
 -8.81300000e-03
 -8.81100000e-03
 -8.79600000e-03
 -8.77800000e-03
 -8.77000000e-03
 -8.75600000e-03
 -8.76400000e-03
 -8.77700000e-03
 -8.76400000e-03
 -8.75100000e-03
 -8.75000000e-03
 -8.75300000e-03
 -8.75000000e-03
 -8.74800000e-03
 -8.74000000e-03
 -8.74000000e-03
 -8.75000000e-03
 -8.73100000e-03
 -8.71700000e-03
 -8.72000000e-03
 -8.71900000e-03
 -8.71700000e-03
 -8.71900000e-03
 -8.70400000e-03
 -8.68200000e-03
 -8.67500000e-03
 -8.68100000e-03
 -8.68000000e-03
 -8.66800000e-03
 -8.65500000e-03
 -8.64800000e-03
 -8.65300000e-03
 -8.63400000e-03
 -8.61900000e-03
 -8.58800000e-03
 -8.57400000e-03
 -8.56600000e-03
 -8.54900000e-03
 -8.52500000e-03
 -8.48500000e-03
 -8.45000000e-03
 -8.41800000e-03
 -8.39600000e-03
 -8.37200000e-03
 -8.33700000e-03
 -8.29400000e-03
 -8.26400000e-03
 -8.24400000e-03
 -8.21000000e-03
 -8.18000000e-03
 -8.16900000e-03
 -8.15400000e-03
 -8.14800000e-03
 -8.14400000e-03
 -8.14900000e-03
 -8.16700000e-03
 -8.19600000e-03
 -8.24400000e-03
 -8.30700000e-03
 -8.36000000e-03
 -8.41500000e-03
 -8.47200000e-03
 -8.51400000e-03
 -8.54200000e-03
 -8.56400000e-03
 -8.58800000e-03
 -8.61700000e-03
 -8.62400000e-03
 -8.63000000e-03
 -8.64600000e-03
 -8.64300000e-03
 -8.64700000e-03
 -8.65600000e-03
 -8.65500000e-03
 -8.64800000e-03
 -8.65300000e-03
 -8.65600000e-03
 -8.65100000e-03
 -8.64600000e-03
 -8.64200000e-03
 -8.65300000e-03
 -8.65100000e-03
 -8.64700000e-03
 -8.64400000e-03
 -8.64400000e-03
 -8.64100000e-03
 -8.64600000e-03
 -8.64700000e-03
 -8.63500000e-03
 -8.61900000e-03
 -8.61700000e-03
 -8.62300000e-03
 -8.62000000e-03
 -8.62000000e-03
 -8.62100000e-03
 -8.61900000e-03
 -8.62100000e-03
 -8.61400000e-03
 -8.61200000e-03
 -8.60200000e-03
 -8.60200000e-03
 -8.61200000e-03
 -8.61700000e-03
 -8.60700000e-03
 -8.58600000e-03
 -8.59400000e-03
 -8.61000000e-03
 -8.61000000e-03
 -8.60300000e-03
 -8.59600000e-03
 -8.60000000e-03
 -8.61100000e-03
 -8.62400000e-03
 -8.61700000e-03
 -8.61300000e-03
 -8.61700000e-03
 -8.63100000e-03
 -8.63800000e-03
 -8.63100000e-03
 -8.61700000e-03
 -8.62000000e-03
 -8.63300000e-03
 -8.62500000e-03
 -8.61500000e-03
 -8.61600000e-03
 -8.62300000e-03
 -8.63600000e-03
 -8.64200000e-03
 -8.64000000e-03
 -8.62900000e-03
 -8.62600000e-03
 -8.63000000e-03
 -8.64600000e-03
 -8.63200000e-03
 -8.64000000e-03
 -8.65200000e-03
 -8.64600000e-03
 -8.64300000e-03
 -8.63900000e-03
 -8.63200000e-03
 -8.63000000e-03
 -8.63500000e-03
 -8.63200000e-03
 -8.60900000e-03
 -8.57100000e-03
 -8.54200000e-03
 -8.52900000e-03
 -8.52800000e-03
 -8.52700000e-03
 -8.53200000e-03
 -8.52800000e-03
 -8.50300000e-03
 -8.47900000e-03
 -8.45900000e-03
 -8.44200000e-03
 -8.44700000e-03
 -8.46200000e-03
 -8.48300000e-03
 -8.50800000e-03
 -8.52900000e-03
 -8.53100000e-03
 -8.57200000e-03
 -8.61600000e-03
 -8.62500000e-03
 -8.64600000e-03
 -8.67300000e-03
 -8.69300000e-03
 -8.69800000e-03
 -8.69600000e-03
 -8.69500000e-03
 -8.68900000e-03
 -8.70300000e-03
 -8.70400000e-03
 -8.69900000e-03
 -8.68000000e-03
 -8.67500000e-03
 -8.66200000e-03
 -8.64900000e-03
 -8.60700000e-03
 -8.54000000e-03
 -8.41300000e-03
 -8.18900000e-03
 -7.84600000e-03
 -7.52900000e-03
 -7.40400000e-03
 -7.62100000e-03
 -8.09100000e-03
 -8.49900000e-03
 -8.72900000e-03
 -8.85200000e-03
 -8.82800000e-03
 -8.74600000e-03
 -8.69200000e-03
 -8.67200000e-03
 -8.66000000e-03
 -8.65800000e-03
 -8.65700000e-03
 -8.65600000e-03
 -8.65300000e-03
 -8.64900000e-03
 -8.65200000e-03
 -8.66300000e-03
 -8.66300000e-03
 -8.65500000e-03
 -8.65100000e-03
 -8.64600000e-03
 -8.65300000e-03
 -8.66100000e-03
 -8.65100000e-03
 -8.64000000e-03
 -8.62800000e-03
 -8.62500000e-03
 -8.63200000e-03
 -8.61800000e-03
 -8.60700000e-03
 -8.59700000e-03
 -8.58400000e-03
 -8.58300000e-03
 -8.57600000e-03
 -8.56400000e-03
 -8.56500000e-03
 -8.56000000e-03
 -8.55900000e-03
 -8.54900000e-03
 -8.53000000e-03
 -8.51400000e-03
 -8.51000000e-03
 -8.49600000e-03
 -8.46900000e-03
 -8.45200000e-03
 -8.44300000e-03
 -8.42000000e-03
 -8.39700000e-03
 -8.37100000e-03
 -8.33600000e-03
 -8.30900000e-03
 -8.28000000e-03
 -8.25000000e-03
 -8.22100000e-03
 -8.18400000e-03
 -8.15700000e-03
 -8.14000000e-03
 -8.12900000e-03
 -8.11200000e-03
 -8.08900000e-03
 -8.05500000e-03
 -8.06800000e-03
 -8.06700000e-03
 -8.06800000e-03
 -8.09100000e-03
 -8.13200000e-03
 -8.19200000e-03
 -8.25000000e-03
 -8.29700000e-03
 -8.34800000e-03
 -8.39100000e-03
 -8.43200000e-03
 -8.46900000e-03
 -8.49100000e-03
 -8.51900000e-03
 -8.54300000e-03
 -8.54900000e-03
 -8.55800000e-03
 -8.56000000e-03
 -8.55600000e-03
 -8.56900000e-03
 -8.59600000e-03
 -8.60200000e-03
 -8.60200000e-03
 -8.58800000e-03
 -8.59200000e-03
 -8.59600000e-03
 -8.59700000e-03
 -8.59000000e-03
 -8.58800000e-03
 -8.59000000e-03
 -8.59200000e-03
 -8.58700000e-03
 -8.58200000e-03
 -8.57400000e-03
 -8.58000000e-03
 -8.58400000e-03
 -8.59400000e-03
 -8.58900000e-03
 -8.57700000e-03
 -8.57500000e-03
 -8.57600000e-03
 -8.58500000e-03
 -8.57800000e-03
 -8.57000000e-03
 -8.56100000e-03
 -8.57300000e-03
 -8.59700000e-03
 -8.59500000e-03
 -8.58500000e-03
 -8.58000000e-03
 -8.58000000e-03
 -8.57500000e-03
 -8.57400000e-03
 -8.57800000e-03
 -8.59000000e-03
 -8.58900000e-03
 -8.58700000e-03
 -8.58500000e-03
 -8.58300000e-03
 -8.58700000e-03
 -8.58600000e-03
 -8.59700000e-03
 -8.60000000e-03
 -8.60700000e-03
 -8.60800000e-03
 -8.60700000e-03
 -8.60900000e-03
 -8.62100000e-03
 -8.61400000e-03
 -8.60900000e-03
 -8.61300000e-03
 -8.61400000e-03
 -8.61000000e-03
 -8.60600000e-03
 -8.61700000e-03
 -8.62500000e-03
 -8.62600000e-03
 -8.62100000e-03
 -8.60600000e-03
 -8.60900000e-03
 -8.62000000e-03
 -8.62700000e-03
 -8.62600000e-03
 -8.61000000e-03
 -8.60100000e-03
 -8.61100000e-03
 -8.60800000e-03
 -8.60400000e-03
 -8.59700000e-03
 -8.60000000e-03
 -8.60400000e-03
 -8.59300000e-03
 -8.59200000e-03
 -8.60300000e-03
 -8.60600000e-03
 -8.60200000e-03
 -8.61300000e-03
 -8.61800000e-03
 -8.60800000e-03
 -8.60500000e-03
 -8.61100000e-03
 -8.60600000e-03
 -8.59100000e-03
 -8.56900000e-03
 -8.53900000e-03
 -8.52300000e-03
 -8.50300000e-03
 -8.50900000e-03
 -8.52500000e-03
 -8.53700000e-03
 -8.51700000e-03
 -8.46500000e-03
 -8.43900000e-03
 -8.44600000e-03
 -8.43900000e-03
 -8.44100000e-03
 -8.46300000e-03
 -8.48200000e-03
 -8.50100000e-03
 -8.51300000e-03
 -8.53400000e-03
 -8.56200000e-03
 -8.59600000e-03
 -8.61800000e-03
 -8.63500000e-03
 -8.64700000e-03
 -8.65300000e-03
 -8.64600000e-03
 -8.64300000e-03
 -8.63900000e-03
 -8.63500000e-03
 -8.64500000e-03
 -8.63600000e-03
 -8.62500000e-03
 -8.62500000e-03
 -8.62600000e-03
 -8.60600000e-03
 -8.58400000e-03
 -8.55100000e-03
 -8.46400000e-03
 -8.32600000e-03
 -8.08200000e-03
 -7.72500000e-03
 -7.43000000e-03
 -7.36600000e-03
 -7.65500000e-03
 -8.13300000e-03
 -8.50900000e-03
 -8.72300000e-03
 -8.82900000e-03
 -8.78600000e-03
 -8.70300000e-03
 -8.64900000e-03
 -8.62700000e-03
 -8.61400000e-03
 -8.60700000e-03
 -8.60400000e-03
 -8.59800000e-03
 -8.59300000e-03
 -8.58500000e-03
 -8.59700000e-03
 -8.60500000e-03
 -8.59600000e-03
 -8.59300000e-03
 -8.60100000e-03
 -8.61100000e-03
